z,T,t,fs,fl,x,y,w,rhob,p
0.0,632.1830992568954,505.0,0.0,0.0,0.16101605116762763,0.23663254414637822,0.04780345579904453,1268.0,14330.0
0.010005002501250625,640.5202853746092,517.7931359888772,2.676237698546967e-05,0.0,0.1610243559309931,0.2366242393828305,0.047803455798756445,1267.9942129034425,14341.163239881174
0.02001000500250125,648.5469416349522,530.0912244032614,5.750511042936922e-05,0.0,0.16103389585785285,0.23661469945556224,0.04780345579811061,1267.9875650944082,14352.547616877193
0.030015007503751877,656.2773646869965,541.9184809504154,9.240323701443141e-05,0.0,0.16104472526438332,0.23660387004817462,0.047803455796755684,1267.9800187227715,14364.145236916078
0.0400200100050025,663.7249879231613,553.2975335157544,0.00013160609462886254,0.0,0.16105689049180882,0.23659170481905317,0.04780345579407469,1267.9715414953696,14375.948447062963
0.05002501250625312,670.9024498888185,564.2495607071285,0.0001752386698836818,0.0,0.16107043032442678,0.23657816498324924,0.04780345578903831,1267.962106384532,14387.949830322666
0.060030015007503754,677.8216573398607,574.7944176076674,0.00022340321828801413,0.0,0.16108537649220017,0.2365632188097641,0.04780345578000918,1267.9516912776296,14400.142199632708
0.07003501750875438,684.4938374860794,584.9507396310356,0.00027618085802701923,0.0,0.16110175416510103,0.23654684112704064,0.04780345576448161,1267.9402786322898,14412.518593306395
0.080040020010005,690.9295914605973,594.736046541257,0.0003336334141508061,0.0,0.16111958252511221,0.2365290127507623,0.0478034557387665,1267.9278550774395,14425.0722682026
0.09004502251125562,697.1389376811858,604.1668267075023,0.0003958050866854942,0.0,0.16113887528352516,0.2365097199663096,0.04780345569760292,1267.914411052377,14437.796694674837
0.10005002501250625,703.1313538983176,613.2586176571747,0.0004627241627767392,0.0,0.1611596412118478,0.236488953997568,0.0478034556337087,1267.8999404362935,14450.685550563823
0.11005502751375687,708.9158159586436,622.0260795560625,0.0005344046618480841,0.0,0.16118188465188124,0.2364667104965347,0.047803455537280194,1267.884440192248,14463.73271494683
0.12006003001500751,714.5008302155464,630.4830565739722,0.0006108478084567512,0.0,0.16120560597226588,0.2364429890864111,0.047803455395420816,1267.8679100483632,14476.932263222066
0.13006503251625812,719.8944673281537,638.642639750551,0.0006920435216674251,0.0,0.16123080203014561,0.2364177928995712,0.04780345519156083,1267.8503521754458,14490.278460423906
0.14007003501750875,725.1043894625303,646.5172176589818,0.0007779716940885208,0.0,0.1612574665675134,0.23639112818081512,0.04780345490482235,1267.83177091006,14503.765756302328
0.15007503751875936,730.1378773768716,654.1185262310921,0.0008686034264438918,0.0,0.1612855905937644,0.23636300390441756,0.047803454509390886,1267.812172487216,14517.388779535433
0.16008004002001,735.0018552966934,661.4576941811872,0.0009639021502046286,0.0,0.161315162733527,0.2363334314259099,0.04780345397390304,1267.7915647972775,14531.14233200714
0.17008504252126064,739.702911934458,668.5452813797216,0.0010638246141233825,0.0,0.16134616953224948,0.2363024241760977,0.047803453260820736,1267.7699571722915,14545.021384181156
0.18009004502251125,744.2473227515401,675.3913188806133,0.0011683218337712603,0.0,0.16137859575039246,0.23626999736653448,0.04780345232590426,1267.747360180369,14559.021069072529
0.19009504752376188,748.641067719168,682.0053409524472,0.0012773398968830136,0.0,0.16141242461287522,0.23623616773974102,0.0478034511176827,1267.723785451247,14573.1366778367
0.2001000500250125,752.8898494818541,688.3964174618532,0.0013908207209077632,0.0,0.16144763804378576,0.23620095333422847,0.047803449577032746,1267.6992455122463,14587.36365453978
0.21010505252626313,756.9991099143077,694.573183244886,0.0015087027244936886,0.0,0.16148421687445674,0.23616437327620834,0.047803447636840454,1267.6737536428807,14601.697591173364
0.22011005502751374,760.9740442875095,700.5438632389822,0.0016309214166956075,0.0,0.16152214102605303,0.23612644759682228,0.047803445221711954,1267.6473237472917,14616.13422351675
0.23011505752876438,764.8196164523786,706.3162990641407,0.001757409945077353,0.0,0.16156138967955608,0.23608719706208378,0.047803442247856896,1267.6199702356598,14630.669425885917
0.24012006003001501,768.5405708433474,711.8979701239557,0.0018880995620868327,0.0,0.16160194142040998,0.2360466430281749,0.04780343862299809,1267.5917079233075,14645.299207312097
0.25012506253126565,772.1414450854624,717.296015526319,0.002022920054149774,0.0,0.1616437743717412,0.23600480730827159,0.04780343424644245,1267.5625519379514,14660.01970694611
0.26013006503251623,775.6265813623432,722.5172537869981,0.002161800116318469,0.0,0.16168686631076454,0.23596171205624114,0.047803429009244676,1267.532517638776,14674.827189812397
0.27013506753376687,779.0001362863924,727.5681999378847,0.0023046676823746336,0.0,0.16173119477142792,0.23591737966414533,0.04780342279444096,1267.5016205451832,14689.718043188683
0.2801400700350175,782.2660915658761,732.4550838008059,0.0024514502205550633,0.0,0.1617767371365331,0.2358718326703707,0.04780341547744626,1267.4698762730604,14704.688772107995
0.29014507253626814,785.4282623628699,737.1838643755847,0.002602074989351788,0.0,0.16182347071748424,0.23582509368014398,0.04780340692647077,1267.4373004796962,14719.735996098138
0.3001500750375187,788.4903063054446,741.7602451901989,0.0027564692649684895,0.0,0.16187137282536238,0.23577718529480818,0.047803397003074885,1267.4039088148986,14734.85644519722
0.31015507753876936,791.4557315026401,746.1896879298363,0.0029145605382070155,0.0,0.16192042083256017,0.23572813005057258,0.0478033855627768,1267.3697168787555,14750.04695637708
0.32016008004002,794.3279036234381,750.4774244714923,0.00307627668866444,0.0,0.16197059222741939,0.2356779503642909,0.04780337245570992,1267.3347401843255,14765.304470407362
0.33016508254127064,797.1100535819211,754.628469814322,0.0032415461321987755,0.0,0.16202186466065258,0.23562666848751268,0.047803357527371124,1267.298994126162,14780.626028035882
0.3401700850425213,799.8052835100685,758.6476321827814,0.0034102979531994357,0.0,0.16207421598704816,0.2355743064652507,0.04780334061936653,1267.262493952118,14796.008767225216
0.35017508754377186,802.4165733651087,762.5395240870931,0.003582462014367046,0.0,0.16212762430025174,0.23552088610171173,0.04780332157022201,1267.225254740055,14811.449919721783
0.3601800900450225,804.9467867107908,766.3085719970741,0.0037579690517787682,0.0,0.16218206796298268,0.23546642893059339,0.04780330021619457,1267.1872913777308,14826.946808059758
0.37018509254627313,807.3986759245313,769.9590250493773,0.003936750758720769,0.0,0.16223752563377367,0.23541095618886468,0.04780327639209439,1267.1486185451208,14842.496842856743
0.38019009504752377,809.774887854723,773.494964421453,0.004118739849261889,0.0,0.16229397628742562,0.23535448879683263,0.04780324993210945,1267.109250701126,14858.09751958556
0.39019509754877435,812.077968187979,776.9203106083015,0.004303870120186366,0.0,0.1623513992349384,0.23529704733872245,0.047803220670612996,1267.0692020706213,14873.7464162376
0.400200100050025,814.3103663999863,780.2388315874695,0.004492076494182517,0.0,0.16240977413760757,0.23523865204907982,0.04780318844295262,1267.0284866355516,14889.441190379532
0.4102051025512756,816.4744400089262,783.4541498384407,0.004683295058281984,0.0,0.16246908101961977,0.23517932280065448,0.04780315308620736,1266.9871181270348,14905.17957664991
0.42021010505252626,818.5724584918482,786.5697487978794,0.004877463096563249,0.0,0.162529300278845,0.2351190790940709,0.047803114439919345,1266.9451100186907,14920.959384431044
0.4302151075537769,820.6066075269867,789.588979796573,0.0050745191077361555,0.0,0.16259041269288158,0.23505794005220607,0.04780307234676261,1266.902475523206,14936.77849512799
0.4402201100550275,822.578992252945,792.5150674185186,0.005274402827920391,0.0,0.162652399426699,0.23499592441296016,0.047803026653196135,1266.8592275877681,14952.634860192828
0.4502251125562781,824.4916410487464,795.3511156544869,0.005477055237261414,0.0,0.16271524203519377,0.23493305052706245,0.04780297721003615,1266.8153788929465,14968.52649860502
0.46023011505752875,826.346508717947,798.1001130933282,0.005682418567830835,0.0,0.16277892246611136,0.23486933635548846,0.04780292387299225,1266.7709418512807,14984.451494781662
0.4702351175587794,828.1454794925569,800.7649378105943,0.005890436308117198,0.0,0.16284342306186933,0.23480479946794636,0.047802866503156495,1266.7259286065769,15000.407996573931
0.48024012006003003,829.8903702655211,803.3483625931796,0.006101053196428798,0.0,0.16290872655785849,0.23473945704482777,0.047802804967401455,1266.6803510355523,15016.394212977308
0.4902451225612806,831.5829330681546,805.8530589651413,0.00631421522246029,0.0,0.1629748160832756,0.2346733258766249,0.04780273913877604,1266.634220747715,15032.40841245897
0.5002501250625313,833.224858003549,808.2816019085545,0.006529869614684182,0.0,0.1630416751574596,0.2346064223677752,0.04780266889679042,1266.5875490882456,15048.448920803683
0.5102551275637819,834.8177756671035,810.6364737675682,0.006747964832522865,0.0,0.16310928768769398,0.23453876253902664,0.04780259412768161,1266.5403471398358,15064.514119369302
0.5202601300650325,836.3632594908769,812.9200680205322,0.0069684505558591575,0.0,0.16317763796613619,0.23447036203064253,0.04780251472462568,1266.4926257250745,15080.602443362162
0.5302651325662832,837.8628282409294,815.1346932751882,0.007191277666621239,0.0,0.1632467106642107,0.23440123610808766,0.04780243058786264,1266.444395410496,15096.712379912124
0.5402701350675337,839.3179479322465,817.2825763475034,0.007416398239354657,0.0,0.16331649082980335,0.23433139966492184,0.04780234162483561,1266.3956665086987,15112.842466653881
0.5502751375687843,840.7300341372596,819.365865939346,0.007643765519306501,0.0,0.1633869638804813,0.23426086722959685,0.04780224775021743,1266.346449083094,15128.991289887168
0.560280140070035,842.1004538513275,821.3866356184604,0.007873333907166852,0.0,0.16345811559878312,0.23418965297018615,0.04780214888594193,1266.2967529512273,15145.15748311957
0.5702851425712856,843.4305273505316,823.3468867775464,0.008105058941183092,0.0,0.16352993212665015,0.23411777069994208,0.047802044961186035,1266.246587688634,15161.339725581329
0.5802901450725363,844.7215301443334,825.2485517297821,0.008338897273832765,0.0,0.16360239995811124,0.2340452338845583,0.04780193591228585,1266.1959626338373,15177.536740608246
0.5902951475737869,845.9746944784328,827.0934961021005,0.008574806657166102,0.0,0.1636755059346817,0.23397205564673462,0.04780182168267976,1266.144886891487,15193.747294435636
0.6003001500750375,847.1912111734987,828.8835217382973,0.008812745917183002,0.0,0.16374923723727416,0.23389824877416895,0.04780170222275467,1266.0933693378158,15209.970194628324
0.6103051525762881,848.3722310807182,830.620369004251,0.009052674935715613,0.0,0.16382358138046085,0.23382382572521385,0.04780157748971743,1266.041418624487,15226.20428886226
0.6203101550775387,849.5188665739162,832.305719143223,0.009294554629454204,0.0,0.16389852620581416,0.23374879863542922,0.047801447447426273,1265.9890431830363,15242.44846364484
0.6303151575787894,850.6321930922293,833.941196701873,0.009538346925480286,0.0,0.1639740598741277,0.23367317932522885,0.04780131206618192,1265.9362512300495,15258.701642957289
0.64032016008004,851.7132503361076,835.5283714185663,0.009784014744590517,0.0,0.16405017086008494,0.23359697930510123,0.04780117132255173,1265.8830507706698,15274.962787226777
0.6503251625812906,852.7630437469211,837.0687605411423,0.010031521975066867,0.0,0.164126847943897,0.23352020978381305,0.04780102519911986,1265.8294496041349,15291.23089198791
0.6603301650825413,853.7825456554044,838.5638306318737,0.010280833454151376,0.0,0.16420408020536495,0.23344288167421273,0.047800873684274485,1265.7754553276636,15307.504986862667
0.6703351675837919,854.7726964941772,840.0149994662585,0.01053191494639267,0.0,0.16428185701694462,0.23336500560001186,0.047800716771965124,1265.7210753410086,15323.784134457397
0.6803401700850426,855.7344060274573,841.4236379532599,0.010784733120020408,0.0,0.1643601680361841,0.23328659190318307,0.04780055446144219,1265.6663168514183,15340.067429223627
0.6903451725862931,856.6685543150329,842.7910716456518,0.011039255529999596,0.0,0.16443900320026292,0.2332076506492769,0.047800386757029086,1265.611186877179,15356.353996579806
0.7003501750875437,857.575992913207,844.1185826083619,0.01129545059285766,0.0,0.16451835271793297,0.23312819163530385,0.04780021366784319,1265.555692252904,15372.642991771287
0.7103551775887944,858.4575457902614,845.4074108475189,0.011553287569720329,0.0,0.16459820706404313,0.23304822439505962,0.04780003520755741,1265.499839633071,15388.933599015014
0.720360180090045,859.3140107739165,846.6587565016495,0.011812740206159042,0.0,0.16467855810881193,0.23296775706968753,0.04779985139414056,1265.4436347047981,15405.225030550399
0.7303651825912957,860.146267816931,847.8739339879704,0.012074656546876209,0.0,0.16475966903498507,0.2328865264902682,0.04779966224945666,1265.3868940989,15421.516526398264
0.7403701850925463,860.9553776946545,849.0545116085679,0.012341601400684039,0.0,0.16484233576698626,0.2328037367474932,0.0477994677974077,1265.3290632142364,15437.807361719772
0.7503751875937968,861.7416810364538,850.201030653289,0.012610509100928185,0.0,0.1649256070054347,0.23272033915836285,0.047799268065853995,1265.2708049858556,15454.096834364718
0.7603801900950475,862.5058350915443,851.3144817164707,0.01288100809414595,0.0,0.16500936748147857,0.23263644901227573,0.047799063087282795,1265.2121997763095,15470.384259997985
0.7703851925962981,863.2485176873489,852.3958825970267,0.013153071430021087,0.0,0.16509360886490618,0.2325520746619625,0.047798852897299425,1265.153253432877,15486.668977866848
0.7803901950975487,863.9703853090709,853.4462186974957,0.013426674034406116,0.0,0.16517832341019809,0.2324672238772584,0.04779863753434885,1265.0939713986922,15502.950350228633
0.7903951975987994,864.672073601761,854.4664438186514,0.013701791524950388,0.0,0.16526350358881,0.23238190421268604,0.0477984170395042,1265.0343589687386,15519.227761705417
0.80040020010005,865.3541981783278,855.4574814026441,0.01397840018819715,0.0,0.16534914208186494,0.23229612301461955,0.04779819145623931,1264.974421294676,15535.50061845925
0.8104052026013007,866.0173552172927,856.4202254556626,0.01425647696514243,0.0,0.16543523177549746,0.23220988742581553,0.04779796083023141,1264.914163387854,15551.768347587546
0.8204102051025512,866.662122150675,857.3555416056305,0.014535999433312916,0.0,0.16552176575511218,0.23212320439102566,0.047797725209157364,1264.8535901230775,15568.03039641608
0.8304152076038018,867.2890583142489,858.2642681012414,0.014816945789586517,0.0,0.16560873729988254,0.23203608066237585,0.047797484642500804,1264.7927062422139,15584.286231827207
0.8404202101050525,867.8987054859296,859.1472166404535,0.015099294836442791,0.0,0.16569613987832782,0.2319485228036773,0.04779723918137513,1264.7315163570704,15600.535339704507
0.8504252126063031,868.4915885540977,860.005173394085,0.015383025963293485,0.0,0.16578396714235857,0.23186053719626565,0.04779698887834087,1264.6700249533308,15616.777224232468
0.8604302151075538,869.0682160062203,860.8388997565314,0.015668119133653947,0.0,0.16587221292315438,0.2317721300430217,0.04779673378724539,1264.6082363932403,15633.011407386915
0.8704352176088044,869.6290805061745,861.6491332294161,0.015954554868875277,0.0,0.16596087122597275,0.23168330737346002,0.04779647396306097,1264.546154919036,15649.237428325792
0.880440220110055,870.174659425869,862.4365882350215,0.016242314233097306,0.0,0.16604993622534725,0.23159407504843574,0.047796209461734185,1264.483784656117,15665.454842826155
0.8904452226113057,870.7054152962858,863.2019568071968,0.01653137882077428,0.0,0.16613940226109297,0.23150443876405039,0.04779594034004602,1264.4211296156654,15681.663222805912
0.9004502251125562,871.2217963624709,863.9459094380737,0.016821730740161734,0.0,0.16622926383306055,0.23141440405681044,0.04779566665547338,1264.3581936981413,15697.862155729757
0.9104552276138069,871.7242369857654,864.669095693533,0.017113352602004927,0.0,0.16631951559751668,0.2313239763071682,0.04779538846606506,1264.2949806956601,15714.05124417896
0.9204602301150575,872.2131581308325,865.3721449557103,0.01740622750491098,0.0,0.16641015236249773,0.2312331607440914,0.047795105830320095,1264.2314942950889,15730.2301053266
0.9304652326163081,872.6889678022296,866.0556670886141,0.017700339022270094,0.0,0.16650116908365242,0.23114196244914928,0.04779481880707555,1264.1677380808144,15746.398370465828
0.9404702351175588,873.1520614249092,866.7202530186469,0.017995671191020936,0.0,0.1665925608606633,0.2310503863600249,0.04779452745540143,1264.1037155371125,15762.555684597404
0.9504752376188094,873.6028223067309,867.3664754378584,0.018292208497150467,0.0,0.16668432293265925,0.2309584372750393,0.047794231834500864,1264.039430051231,15778.701705926318
0.9604802401200601,874.04162197173,867.994889312061,0.01858993586576921,0.0,0.16677645067505503,0.23086611985625405,0.04779393200361836,1263.974884915484,15794.836105497843
0.9704852426213106,874.4688205727033,868.6060325076999,0.018888838648045046,0.0,0.16686893959542054,0.23077343863354696,0.04779362802195311,1263.9100833300297,15810.958566745881
0.9804902451225612,874.8847672511461,869.2004263389204,0.019188902609894257,0.0,0.16696178532990152,0.23068039800814122,0.04779331994857924,1263.8450284052735,15827.068785097623
0.9904952476238119,875.2898004601731,869.7785760585259,0.019490113921911308,0.0,0.16705498364002846,0.23058700225574857,0.04779300784237045,1263.7797231640031,15843.166467617506
1.0005002501250626,875.6842483510837,870.3409714440344,0.019792459146703825,0.0,0.16714853040872685,0.23049325553051608,0.04779269176193226,1263.7141705440895,15859.251332581089
1.0105052526263132,876.0684290511552,870.8880872198756,0.02009592523020806,0.0,0.16724242163756534,0.2303991618677371,0.047792371765536766,1263.648373400331,15875.323109166595
1.0205102551275638,876.4426510143505,871.4203835886723,0.020400499490074542,0.0,0.16733665344310092,0.23030472518746922,0.04779204791106482,1263.5823345069307,15891.381537066458
1.0305152576288144,876.8072133191226,871.9383066826404,0.02070616960592388,0.0,0.16743122205380778,0.2302099492975713,0.047791720255951936,1263.516056559575,15907.426366156003
1.040520260130065,877.1624059438824,872.4422889811262,0.021012923610348348,0.0,0.16752612380724044,0.23011483789650797,0.047791388857137455,1263.4495421773524,15923.457356185841
1.0505252626313157,877.508510090846,872.9327498003332,0.02132074987789441,0.0,0.16762135514657753,0.23001939457677903,0.047791053771021594,1263.3827939051105,15939.474276421519
1.0605302651325663,877.8457984188843,873.4100956462262,0.021629637117472046,0.0,0.16771691261822766,0.22992362282728526,0.04779071505342139,1263.315814215074,15955.47690538155
1.070535267633817,878.1745353424278,873.874720666175,0.021939574362069905,0.0,0.1678127928686074,0.2298275260365287,0.04779037275953545,1263.2486055090505,15971.465030503708
1.0805402701350675,878.4949772786558,874.3270070227425,0.022250550960378777,0.0,0.1679089926415118,0.2297311074952198,0.047790026943909554,1263.181170120221,15987.438447867211
1.090545272636318,878.8073728835074,874.7673252504659,0.022562556568767916,0.0,0.1680055087755968,0.22963437039877527,0.047789677660404935,1263.1135103148588,16003.39696192686
1.1005502751375686,879.1119633234971,875.1960346659896,0.022875581141730984,0.0,0.1681023382013939,0.229537317850288,0.04778932496217401,1263.0456282943815,16019.34038520861
1.1105552776388194,879.4089824719131,875.6134836646887,0.023189614925252233,0.0,0.16819947793922707,0.22943995286259247,0.04778896890163265,1262.9775261967707,16035.268538086671
1.12056028014007,879.6986571640821,876.0200101055185,0.02350464844772649,0.0,0.1682969250963796,0.22934227836108662,0.047788609530441895,1262.9092060985258,16051.181248497094
1.1305652826413206,879.9812074031597,876.415941621542,0.023820672512768846,0.0,0.1683946768648457,0.2292442971859673,0.04778824689948812,1262.8406700162068,16067.078351704773
1.1405702851425712,880.2568465630695,876.8015959260101,0.02413767819207069,0.0,0.1684927305190986,0.22914601209445157,0.047787881058865826,1262.7719199079702,16082.959690073569
1.1505752876438218,880.5257816169832,877.1772811564379,0.024455656817135952,0.0,0.1685910834135176,0.22904742576334283,0.04778751205786699,1262.70295767535,16098.825112809393
1.1605802901450726,880.7882133034446,877.5432961252162,0.024774599973479583,0.0,0.16868973298057405,0.22894854079083501,0.04778713994496542,1262.6337851645055,16114.67447577015
1.1705852926463232,881.044336344686,877.899930648114,0.025094499492632264,0.0,0.16878867672834527,0.22884935969899456,0.0477867647678108,1262.564404167943,16130.507641220267
1.1805902951475737,881.2943396184265,878.2474658030372,0.025415347445972736,0.0,0.16888791223859329,0.2287498849356764,0.047786386573219444,1262.494816425848,16146.324477635142
1.1905952976488243,881.5384063329017,878.5861741934779,0.025737136138374313,0.0,0.16898743716478737,0.22865011887649672,0.04778600540716764,1262.4250236274534,16162.12485950236
1.200600300150075,881.7767142191274,878.916320237563,0.026059858101072465,0.0,0.16908724922989032,0.22855006382704618,0.047785621314790555,1262.3550274125828,16177.908667105114
1.2106053026513257,882.0094356722118,879.238160380822,0.026383506086585143,0.0,0.16918734622477632,0.2284497220244676,0.04778523434037538,1262.2848293727432,16193.675786359832
1.2206103051525763,882.2367379382425,879.5519433769224,0.026708073061688983,0.0,0.16928772600605418,0.22834909563963454,0.047784844527364055,1262.2144310526476,16209.426108606072
1.2306153076538269,882.4587832580968,879.8579105039171,0.027033552202129826,0.0,0.16938838649442456,0.22824818677879297,0.04778445191835125,1262.1438339513545,16225.15953044228
1.2406203101550775,882.6757290187606,880.1562957916054,0.027359936886977448,0.0,0.1694893256729293,0.2281469974853121,0.04778405655508543,1262.0730395234934,16240.875953553928
1.250625312656328,882.8877279152539,880.4473262646035,0.027687220692480953,0.0,0.1695905415850495,0.22804552974159,0.047783658478473975,1262.0020491805928,16256.575284531127
1.2606303151575788,883.0949280713528,880.7312221238042,0.028015397387614147,0.0,0.1696920323333232,0.22794378547043553,0.04778325772858264,1261.9308642920448,16272.25743472961
1.2706353176588294,883.2974731996554,881.0081969864628,0.02834446092791871,0.0,0.16979379607744233,0.22784176653697646,0.047782854344644035,1261.8594861864408,16287.922320091206
1.28064032016008,883.4955027222748,881.2784580674199,0.02867440545096646,0.0,0.1698958310328477,0.22773947475006656,0.0477824483650605,1261.7879161525539,16303.569861005739
1.2906453226613306,883.6891519019126,881.5422063757384,0.02900522527134757,0.0,0.16999813546917944,0.22763691186383908,0.0477820398274104,1261.7161554404267,16319.199982162521
1.3006503251625812,883.878551978307,881.7996369192582,0.029336914875385544,0.0,0.17010070770864535,0.22753407957934407,0.04778162876845721,1261.6442052625198,16334.812612396872
1.310655327663832,884.063830271789,882.050938860017,0.02966946891722371,0.0,0.1702035461248101,0.22743097954576172,0.04778121522415326,1261.5720667945577,16350.407684570933
1.3206603301650826,884.2451103203862,882.2962957196277,0.030002882213439684,0.0,0.1703066491409347,0.22732761336207014,0.047780799229651845,1261.4997411767026,16365.985135420466
1.3306653326663331,884.4225119813791,882.5358855315698,0.030337149739149822,0.0,0.17041001522877378,0.22722398257825255,0.0477803808193132,1261.4272295143985,16381.544905438648
1.3406703351675837,884.5961515450025,882.7698810115285,0.030672266623563427,0.0,0.17051364290720414,0.22712008869667408,0.047779960026714204,1261.3545328793384,16397.086938747794
1.3506753376688343,884.7661418494698,882.998449729636,0.031008228145443538,0.0,0.17061753074082697,0.22701593317348745,0.04777953688465973,1261.281652310452,16412.611182970322
1.360680340170085,884.932592370133,883.2217542440995,0.03134502972966256,0.0,0.1707216773389046,0.22691151741969964,0.04777911142518924,1261.2085888146548,16428.117589126407
1.3706853426713357,885.0956093368998,883.4399522768904,0.031682666942500715,0.0,0.17082608135391464,0.22680684280262745,0.04777868367959084,1261.1353433678707,16443.606111503464
1.3806903451725863,885.255295819906,883.6531968420646,0.03202113548829847,0.0,0.17093074148051812,0.2267019106469337,0.047778253678409155,1261.0619169157626,16459.076707558237
1.3906953476738368,885.4117518282475,883.8616363934988,0.03236043120551614,0.0,0.17103565645434726,0.22659672223584723,0.047777821451457106,1260.9883103745888,16474.529337806092
1.4007003501750874,885.5650744069776,884.065414969985,0.03270055006283991,0.0,0.1711408250508084,0.22649127881236764,0.04777738702782822,1260.9145246320531,16489.96396571265
1.4107053526763382,885.7153577141174,884.2646723105123,0.03304148815614538,0.0,0.1712462460841472,0.22638558158020541,0.047776950435905054,1260.8405605479654,16505.380557605684
1.4207103551775888,885.8626931211847,884.459544004531,0.03338324170440051,0.0,0.17135191840619082,0.22627963170504928,0.04777651170337407,1260.766418955136,16520.77908256424
1.4307153576788394,886.0071692856454,884.6501616003577,0.033725807046785586,0.0,0.17145784090546184,0.22617343031545767,0.04777607085723447,1260.6921006600037,16536.159512335966
1.44072036018009,886.1488722367042,884.836652733409,0.03406918063920383,0.0,0.17156401250610745,0.22606697850393787,0.04777562792381102,1260.6176064433962,16551.521821241633
1.4507253626813406,886.2878854571213,885.0191412484779,0.034413359050944274,0.0,0.1716704321668746,0.22596027732797858,0.04777518292876663,1260.5429370612603,16566.865986084227
1.4607303651825914,886.4242899499174,885.1977472994752,0.03475833896200091,0.0,0.171777098880287,0.2258533278108789,0.04777473589711163,1260.468093245244,16582.1919860731
1.470735367683842,886.5581643244041,885.3725874779088,0.03510411715950866,0.0,0.17188401167155232,0.22574613094285093,0.04777428685321883,1260.3930757034796,16597.499802729773
1.4807403701850925,886.689584857604,885.5437749046954,0.03545069053526194,0.0,0.17199116959780028,0.22563868768178671,0.04777383582083262,1260.3178851211205,16612.789419818113
1.490745372686343,886.8186255688241,885.7114193415214,0.03579805608262767,0.0,0.17209857174713683,0.2255309989542133,0.047773382823082126,1260.2425221610208,16628.060823262156
1.5007503751875937,886.9453582886842,885.8756272939202,0.03614621089368774,0.0,0.17220621723776802,0.2254230656561758,0.04777292788249352,1260.1669874643553,16643.314001069804
1.5107553776888443,887.0698527170331,886.0365020977896,0.03649515215686912,0.0,0.1723141052172737,0.22531488865397054,0.04777247102099967,1260.0912816511407,16658.548943267433
1.520760380190095,887.192176496533,886.1941440291912,0.03684487715384838,0.0,0.17242223486165942,0.22520646878510167,0.04777201225995469,1260.0154053209105,16673.765641820137
1.5307653826913457,887.312395264852,886.348650382305,0.037195383257410446,0.0,0.17253060537470064,0.22509780685894334,0.047771551620143016,1259.9393590531865,16688.964090572572
1.5407703851925962,887.4305727194923,886.5001155661532,0.037546667928720405,0.0,0.1726392159871074,0.2249889036575828,0.047771089121792384,1259.8631434080712,16704.144285178354
1.5507753876938468,887.5467706760447,886.6486311915237,0.037898728714878156,0.0,0.17274806595577585,0.22487975993657625,0.04777062478458547,1259.7867589267867,16719.306223036012
1.5607803901950974,887.661049118575,886.7942861461727,0.03825156324682117,0.0,0.17285715456314638,0.2247703764255971,0.04777015862766955,1259.7102061321318,16734.449903232646
1.5707853926963482,887.7734662625219,886.9371666886104,0.03860516923664012,0.0,0.17296648111638274,0.22466075382926534,0.047769690669670274,1259.63348552907,16749.57532647643
1.5807903951975988,887.8840785991566,887.0773565144517,0.03895954447572801,0.0,0.1730760449468054,0.2245508928277198,0.047769220928700326,1259.5565976051357,16764.682495046527
1.5907953976988494,887.9929409519283,887.214936840421,0.039314686832371715,0.0,0.1731858454091555,0.224440794077362,0.047768749422372,1259.4795428309603,16779.77141273239
1.6008004002001,888.1001065256414,887.3499864776784,0.03967059424966024,0.0,0.17329588188095504,0.2243304582115027,0.04776827616780789,1259.4023216607322,16794.842084780135
1.6108054027013505,888.2056269503616,887.4825818973014,0.04002726474362738,0.0,0.17340615376193955,0.22421988584093555,0.04776780118165039,1259.3249345326014,16809.89451784392
1.6208104052026013,888.309552335146,887.6127973103428,0.04038469640092701,0.0,0.1735166604733473,0.22410907755465548,0.04776732448007438,1259.247381869191,16824.928719928987
1.630815407703852,888.4119313060007,887.7407047244402,0.04074288737723046,0.0,0.17362740145742991,0.22399803392035367,0.04776684607879543,1259.169664077948,16839.944700349046
1.6408204102051025,888.5128110548392,887.866374016754,0.04110183589510266,0.0,0.17373837617680352,0.22388675548507356,0.04776636599308164,1259.091781551608,16854.942469674377
1.650825412706353,888.612237381007,887.9898729958464,0.04146154024221354,0.0,0.17384958411390247,0.22377524277576352,0.04776588423776344,1259.013734668588,16869.922039686808
1.6608304152076037,888.710254729597,888.11126745878,0.04182199876969177,0.0,0.17396102477047676,0.22366349629978513,0.04776540082724255,1258.9355237933485,16884.883423337782
1.6708354177088545,888.806906237307,888.2306212594067,0.04218320989011471,0.0,0.1740726976669783,0.22355151654553412,0.047764915775503694,1258.857149276832,16899.82663470038
1.680840420210105,888.9022337649297,888.3479963567884,0.042545172076117646,0.0,0.17418460234213645,0.2234393039828698,0.04776442909612213,1258.7786114567702,16914.75168893308
1.6908454227113556,888.9962779398625,888.4634528784866,0.042907883858523566,0.0,0.17429673835238715,0.22332685906369282,0.04776394080227467,1258.6999106580934,16929.65860223534
1.7008504252126062,889.0890781911893,888.577049172812,0.04327134382481357,0.0,0.1744091052714064,0.2232141822224173,0.04776345090674853,1258.6210471932657,16944.547391809858
1.7108554277138568,889.1806727831482,888.6888418586628,0.043635550617667385,0.0,0.1745217026896647,0.22310127387642167,0.04776295942194979,1258.5420213626069,16959.41807582649
1.7208604302151076,889.2710988542415,888.7988858837334,0.04400050293322744,0.0,0.17463453021389774,0.2229881344265846,0.04776246635991388,1258.4628334546715,16974.270673381787
1.7308654327163582,889.3603924451102,888.907234566029,0.04436619951988954,0.0,0.17474758746673766,0.2228747642576586,0.04776197173231256,1258.3834837465163,16989.105204468193
1.7408704352176088,889.4485885354163,889.0139396487465,0.04473263917665822,0.0,0.17486087408621112,0.22276116373877752,0.047761475550464075,1258.303972504059,17003.921689936134
1.7508754377188593,889.5357210734992,889.1190513444158,0.0450998207518384,0.0,0.17497438972534085,0.2226473332238608,0.04776097782534097,1258.224299982368,17018.720151462356
1.76088044022011,889.6218230056297,889.2226183784376,0.045467743141741124,0.0,0.17508813405175072,0.22253327305201287,0.047760478567578014,1258.1444664259443,17033.500611518844
1.7708854427213607,889.706926309338,889.3246880386596,0.045836405289186304,0.0,0.17520210674720954,0.22241898354798537,0.04775997778748159,1258.0644720690532,17048.263093338872
1.7808904452226113,889.7910620173859,889.425306211057,0.046205806182449,0.0,0.1753163075073098,0.22230446502250278,0.047759475495036,1257.984317135952,17063.007620890683
1.7908954477238619,889.874260249737,889.5245174272767,0.04657594485381496,0.0,0.17543073604102766,0.2221897177727079,0.047758971699912785,1257.9040018412113,17077.734218845235
1.8009004502251125,889.956550238643,889.6223649019571,0.04694682037846126,0.0,0.17554539207038147,0.22207474208250758,0.04775846641147755,1257.8235263899578,17092.442912549675
1.810905452726363,890.0379603542284,889.7188905707819,0.04731843187330833,0.0,0.17566027533008252,0.22195953822292713,0.04775795963879738,1257.742890978128,17107.13372800054
1.8209104552276139,890.118518132867,889.814135132667,0.047690778495730286,0.0,0.17577538556714184,0.22184410645250846,0.04775745139064907,1257.6620957927514,17121.806691815316
1.8309154577288644,890.1982502978475,889.9081380805028,0.04806385944263454,0.0,0.17589072254058988,0.22172844701759395,0.047756941675524946,1257.5811410121526,17136.461831209977
1.840920460230115,890.2771827870561,890.0009377422969,0.048437673949195174,0.0,0.17600628602109075,0.2216125601527176,0.04775643050164113,1257.50002680623,17151.099173971597
1.8509254627313656,890.3553407742139,890.0925713127542,0.04881222128789462,0.0,0.17612207579065045,0.22149644608090074,0.04775591787694374,1257.418753336666,17165.718748436047
1.8609304652326162,890.4327486912614,890.1830748865476,0.04918750076750552,0.0,0.17623809164230664,0.22138010501396635,0.04775540380911549,1257.337320757151,17180.32058346504
1.870935467733867,890.5094302524958,890.2724834941848,0.04956351173198113,0.0,0.17635433337979112,0.22126353715288144,0.04775488830558308,1257.255729213628,17194.904708422273
1.8809404702351176,890.5854084724303,890.3608311285595,0.04994025355964953,0.0,0.17647080081728406,0.2211467426880058,0.04775437137352238,1257.1739788444681,17209.47115315422
1.8909454727363681,890.6607056897346,890.448150780512,0.05031772566210475,0.0,0.1765874937790768,0.22102972179943403,0.04775385301986586,1257.0920697807164,17224.019947967012
1.9009504752376187,890.735343585234,890.534474465578,0.05069592748338544,0.0,0.1767044120993216,0.22091247465724945,0.04775333325130803,1257.0100021462702,17238.55112360762
1.9109554777388693,890.8093432014932,890.6198332530795,0.05107485849907218,0.0,0.176821555621757,0.2207950014218021,0.04775281207431147,1256.927776058081,17253.064711244224
1.9209604802401201,890.8827249633327,890.7042572965921,0.051454518215333866,0.0,0.1769389241994176,0.22067730224400353,0.04775228949511323,1256.8453916263595,17267.560742446258
1.9309654827413707,890.9555086932993,890.7877758569302,0.05183490616822048,0.0,0.1770565176944186,0.22055937726554484,0.04775176551972959,1256.7628489547353,17282.03924916801
1.9409704852426213,891.027713632342,890.8704173328401,0.052216021922694006,0.0,0.17717433597766136,0.2204412266191956,0.047751240153962635,1256.6801481404686,17296.500263729053
1.9509754877438719,891.0993584550873,890.9522092836836,0.05259786507192366,0.0,0.1772923789286184,0.2203228504290216,0.04775071340340502,1256.5972892746051,17310.94381879847
1.9609804902451224,891.1704612869717,891.033178454871,0.052980435236485754,0.0,0.17741064643509022,0.22020424881063155,0.047750185273445406,1256.514272442151,17325.36994737805
1.970985492746373,891.2410397216651,891.1133508037196,0.05336373206354498,0.0,0.17752913839295636,0.22008542187142982,0.04774965576927411,1256.4310977222547,17339.778682785647
1.9809904952476238,891.3111108345051,891.1927515193939,0.05374775522623238,0.0,0.1776478547059858,0.21996636971080835,0.0477491248958873,1256.3477651883436,17354.170058641095
1.9909954977488744,891.3806912003297,891.2714050493606,0.05413250442279963,0.0,0.17776679528558004,0.21984709242040748,0.04774859265809288,1256.2642749083088,17368.544108849834
2.001000500250125,891.4497969064588,891.34933511865,0.05451797937601348,0.0,0.17788596005058854,0.21972759008430312,0.04774805906051459,1256.18062694464,17382.900867589564
2.0110055027513756,891.5184435676798,891.4265647520831,0.054904179832446845,0.0,0.17800534892709338,0.2196078627792251,0.047747524107596986,1256.0968213545802,17397.24036929594
2.0210105052526264,891.5866463410374,891.5031162962001,0.055291105561776605,0.0,0.17812496184819562,0.21948791057477407,0.04774698780361031,1256.0128581902802,17411.56264864872
2.0310155077538767,891.6544199375228,891.579011436594,0.05567875635623509,0.0,0.17824479875384827,0.21936773353359082,0.04774645015265419,1255.9287374989217,17425.86774055967
2.0410205102551275,891.7217786374352,891.654271220678,0.056067132029873464,0.0,0.1783648595906325,0.2192473317115832,0.04774591115866294,1255.8444593228749,17440.15568015891
2.0510255127563783,891.7887363014344,891.7289160740645,0.0564562324180403,0.0,0.17848514431159898,0.21912670515808746,0.04774537082540909,1255.7600236998178,17454.426502783597
2.0610305152576287,891.855306383646,891.8029658199799,0.05684605737675402,0.0,0.17860565287607702,0.21900585391606148,0.04774482915650782,1255.6754306628716,17468.680243965835
2.0710355177588795,891.9215019442084,891.8764396978459,0.05723660678210085,0.0,0.17872638524949153,0.21888477802227072,0.047744286155421194,1255.5906802407346,17482.916939421084
2.08104052026013,891.9873356594669,891.949356378373,0.05762788052975039,0.0,0.17884734140321562,0.21876347750743763,0.04774374182546155,1255.5057724577869,17497.136625037874
2.0910455227613807,892.0528198351931,892.0217339831252,0.05801987853431476,0.0,0.178968521314376,0.21864195239643947,0.04774319616979602,1255.4207073342347,17511.3393368664
2.1010505252626315,892.1179664160131,892.0935900984668,0.05841260072889894,0.0,0.17908992496571582,0.21852020270844677,0.04774264919144972,1255.3354848862052,17525.525111108946
2.111055527763882,892.1827869968672,892.1649417925099,0.058806047064545446,0.0,0.17921155234542627,0.21839822845709495,0.04774210089330965,1255.2501051258728,17539.693984109672
2.1210605302651326,892.2472928336541,892.2358056308485,0.059200217509718385,0.0,0.1793334034469895,0.21827602965064347,0.04774155127812841,1255.1645680615698,17553.845992345006
2.131065532766383,892.3114948521409,892.3061976897164,0.05959511204987492,0.0,0.17945547826904823,0.21815360629210778,0.04774100034852712,1255.0788736978825,17567.981172414828
2.141070535267634,892.3754036593289,892.3761335727766,0.0599907306869085,0.0,0.1795777768152368,0.21803095837943132,0.04774044810699954,1254.9930220357721,17582.099561033003
2.151075537768884,892.4390295515198,892.4456284230141,0.060387073438760056,0.0,0.17970029909406268,0.21790808590560545,0.04773989455591471,1254.907013072662,17596.201195019297
2.161080540270135,892.5023825243345,892.5146969375131,0.06078414033892717,0.0,0.17982304511875738,0.2177849888588208,0.04773933969752047,1254.820846802545,17610.286111290792
2.1710855427713858,892.5654722817502,892.5833533807739,0.06118193143602184,0.0,0.17994601490714202,0.2176616672226038,0.04773878353394668,1254.734523216081,17624.354346853906
2.181090545272636,892.6283082439066,892.6516115961928,0.06158044679339081,0.0,0.1800692084815118,0.2175381209759336,0.04773822606720783,1254.64804230068,17638.405938796845
2.191095547773887,892.6908995568764,892.7194850204469,0.06197968648863238,0.0,0.1801926258684894,0.21741435009339144,0.04773766729920663,1254.5614040406085,17652.440924281855
2.2011005502751373,892.7532550995902,892.7869866936484,0.0623796506132595,0.0,0.1803162670989222,0.21729035454526435,0.047737107231736256,1254.4746084170652,17666.459340538317
2.211105552776388,892.8153834926004,892.8541292722152,0.06278033927226613,0.0,0.18044013220775088,0.21716613429767906,0.04773654586648359,1254.387655408274,17680.461224855626
2.221110555277639,892.877293105768,892.9209250401323,0.06318175258374817,0.0,0.1805642212338936,0.21704168931271878,0.04773598320503191,1254.3005449895695,17694.446614576507
2.2311155577788893,892.9389920651212,892.987385918971,0.06358389067856647,0.0,0.18068853422014436,0.21691701954852732,0.047735419248863216,1254.2132771334702,17708.41554709068
2.24112056028014,893.000488261263,893.0535234801955,0.06398675369992812,0.0,0.18081307121304507,0.21679212495943828,0.04773485399936137,1254.1258518097716,17722.36805982846
2.2511255627813904,893.0617893553458,893.1193489538375,0.06439034180309337,0.0,0.18093783226279672,0.21666700549606527,0.04773428745781413,1254.0382689856087,17736.3041902549
2.2611305652826412,893.1229027867504,893.1848732396904,0.0647946551549931,0.0,0.18106281742314317,0.21654166110542017,0.047733719625415866,1253.950528625543,17750.223975863933
2.271135567783892,893.1838357796444,893.2501069168229,0.06519969393390328,0.0,0.18118802675127216,0.21641609173101325,0.04773315050327,1253.862630691632,17764.127454172794
2.2811405702851424,893.2445953490409,893.3150602523212,0.06560545832914594,0.0,0.18131346030772424,0.2162902973129458,0.04773258009239104,1253.774575143496,17778.014662716694
2.291145572786393,893.305188308048,893.3797432117941,0.06601194854072596,0.0,0.18143911815628277,0.21616427778802175,0.047732008393707316,1253.686361938398,17791.885639043587
2.3011505752876436,893.3656212730642,893.4441654667877,0.0664191647790759,0.0,0.18156500036389592,0.21603803308982683,0.04773143540806269,1253.5979910313001,17805.74042070924
2.3111555777888944,893.4259006705307,893.5083364045009,0.06682710726471812,0.0,0.1816911070005743,0.21591156314883234,0.0477308611362191,1253.5094623749367,17819.5790452724
2.321160580290145,893.4860327425658,893.5722651358068,0.0672357762279854,0.0,0.18181743813930595,0.21578486789248177,0.047730285578858486,1253.420775919878,17833.401550290204
2.3311655827913955,893.5460235523548,893.6359605028739,0.0676451719087546,0.0,0.18194399385597523,0.2156579472452727,0.04772970873658474,1253.3319316145862,17847.207973313707
2.3411705852926463,893.6058789904349,893.699431088105,0.0680552945561321,0.0,0.18207077422926754,0.21553080112885392,0.04772913060992601,1253.242929405488,17860.998351883645
2.3511755877938967,893.6656047792741,893.7626852204735,0.06846614442823033,0.0,0.18219777934060108,0.21540342946209434,0.04772855119933623,1253.15376923702,17874.77272352629
2.3611805902951475,893.7252064792444,893.8257309839244,0.06887772179186989,0.0,0.1823250092740365,0.2152758321611749,0.047727970505197316,1253.0644510516972,17888.531125749556
2.3711855927963983,893.7846894935245,893.8885762241196,0.06929002692233867,0.0,0.1824524641162036,0.21514800913966287,0.04772738852782089,1252.974974790165,17902.273596039166
2.3811905952976486,893.844059072954,893.9512285550622,0.06970306010315452,0.0,0.18258014395622937,0.21501996030858506,0.04772680526744996,1252.885340391252,17916.000171854994
2.3911955977988995,893.9033203215424,894.0136953666711,0.07011682162579268,0.0,0.1827080488856547,0.214891685576512,0.047726220724260957,1252.795547792028,17929.710890627688
2.40120060030015,893.9624782005851,894.0759838301747,0.0705313117894888,0.0,0.18283617899837515,0.2147631848496185,0.04772563489836501,1252.7055969278506,17943.405789755143
2.4112056028014006,894.0215375340184,894.1381009053425,0.07094653090097641,0.0,0.18296453439056057,0.21463445803176492,0.04772504778980999,1252.61548773242,17957.08490659947
2.4212106053026514,894.0805030127761,894.2000533461247,0.0713624792742784,0.0,0.1830931151605921,0.2145055050245612,0.04772445939858189,1252.525220137827,17970.748278483836
2.431215607803902,894.1393791992542,894.2618477063735,0.07177915723049488,0.0,0.18322192140899757,0.21437632572743248,0.047723869724606384,1252.434794074599,17984.395942689473
2.4412206103051526,894.1981705322347,894.3234903462177,0.07219656509756643,0.0,0.18335095323837933,0.2142469200376922,0.04772327876775057,1252.3442094717516,17998.02793645307
2.451225612806403,894.2568813307117,894.3849874366202,0.07261470321009958,0.0,0.18348021075336163,0.21411728785059564,0.04772268652782413,1252.2534662568269,18011.644296963823
2.4612306153076537,894.3155157987977,894.4463449655474,0.07303357190913465,0.0,0.18360969406051966,0.21398742905941195,0.047722093004581065,1252.1625643559466,18025.245061361114
2.4712356178089045,894.3740780297419,894.5075687426315,0.07345317154196444,0.0,0.18373940326832466,0.21385734355547975,0.047721498197720966,1252.0715036938495,18038.830266731977
2.481240620310155,894.4325720101726,894.5686644040595,0.07387350246194346,0.0,0.1838693384870858,0.21372703122826617,0.047720902106890346,1251.9802841939354,18052.39995010873
2.4912456228114057,894.4910016246553,894.629637417868,0.07429456502828158,0.0,0.18399949982888755,0.21359649196543037,0.047720304731684184,1251.8889057783083,18065.95414846699
2.501250625312656,894.549370659428,894.6904930877283,0.07471635960588785,0.0,0.1841298874075422,0.21346572565287195,0.047719706071646946,1251.7973683678133,18079.492898723278
2.511255627813907,894.6076828070686,894.751236558133,0.07513888656516436,0.0,0.18426050133852698,0.21333473217479426,0.04771910612627415,1251.7056718820797,18093.016237733405
2.5212606303151577,894.66594167042,894.8118728181628,0.07556214628184683,0.0,0.184391341738936,0.21320351141375377,0.04771850489501342,1251.6138162395591,18106.524202290384
2.531265632816408,894.7241507668282,894.8724067055741,0.07598613913683196,0.0,0.1845224087274274,0.2130720632507132,0.04771790237726577,1251.5218013575588,18120.016829122753
2.541270635317659,894.7823135325993,894.9328429110906,0.07641086551599588,0.0,0.1846537024241683,0.2129403875650978,0.047717298572386845,1251.4296271522874,18133.494154893102
2.551275637818909,894.8404333269115,894.9931859814387,0.07683632581005242,0.0,0.1847852229507917,0.21280848423483875,0.04771669347968795,1251.3372935388804,18146.956216196286
2.56128064032016,894.8985134365148,895.0534403235831,0.07726252041436862,0.0,0.18491697043034042,0.21267635313643016,0.04771608709843737,1251.2448004314451,18160.403049558354
2.571285642821411,894.9565570798824,895.1136102076279,0.07768944972882204,0.0,0.18504894498722355,0.21254399414497332,0.04771547942786135,1251.1521477430902,18173.834691435033
2.581290645322661,895.0145674117481,895.17369977009,0.07811711415764241,0.0,0.18518114674716868,0.21241140713422524,0.047714870467145225,1251.05933538596,18187.251178210627
2.591295647823912,895.0725475278183,895.2337130172074,0.07854551410924983,0.0,0.18531357583717217,0.2122785919766488,0.04771426021543458,1250.9663632712716,18200.652546197125
2.6013006503251623,895.1305004692324,895.2936538271874,0.07897464999612272,0.0,0.18544623238545951,0.2121455485434534,0.047713648671836126,1250.8732313093435,18214.03883163295
2.611305652826413,895.188429227676,895.3535259534749,0.0794045222346305,0.0,0.185579116521434,0.21201227670464656,0.04771303583541898,1250.7799394096314,18227.41007068253
2.621310655327664,895.2463367502122,895.4133330267442,0.07983513124490214,0.0,0.1857122283756372,0.21187877632907456,0.04771242170521543,1250.6864874807584,18240.766299435316
2.6313156578289143,895.3042259445567,895.4730785572883,0.08026647745067798,0.0,0.18584556807970345,0.21174504728446805,0.04771180628022217,1250.5928754305464,18254.107553905327
2.641320660330165,895.3620996845543,895.5327659372908,0.08069856127916125,0.0,0.1859791357663151,0.211611089437488,0.047711189559401186,1250.4991031660502,18267.43387003084
2.6513256628314155,895.4199608157371,895.5923984421792,0.08113138316089134,0.0,0.18611293156916361,0.21147690265376462,0.047710571541680694,1250.4051705935851,18280.74528367382
2.6613306653326663,895.4778121614098,895.6519792328314,0.0815649435295877,0.0,0.18624695562290247,0.2113424867979458,0.047709952225956274,1250.311077618759,18294.0418306201
2.671335667833917,895.5356565288305,895.7115113565351,0.08199924282202349,0.0,0.18638120806310834,0.21120784173373572,0.047709331611091706,1250.2168241465038,18307.323546579075
2.6813406703351674,895.5934967158831,895.7709977483393,0.08243428147788204,0.0,0.18651568902623775,0.21107296732393957,0.04770870969592001,1250.1224100811048,18320.59046718401
2.6913456728364182,895.6513355180757,895.8304412321523,0.08287005993961499,0.0,0.18665039864958377,0.21093786343050697,0.047708086479244405,1250.0278353262318,18333.8426279924
2.7013506753376686,895.7091757360273,895.8898445209913,0.08330657865231426,0.0,0.18678533707123712,0.21080252991457168,0.04770746195983921,1249.9330997849681,18347.08006448618
2.7113556778389194,895.7670201833672,895.9492102179561,0.08374383806356042,0.0,0.18692050443004002,0.21066696663649837,0.047706836136450964,1249.838203359844,18360.302812072736
2.72136068034017,895.82487169528,896.008540815917,0.0841818386232935,0.0,0.1870559008655469,0.21053117345592232,0.047706209007799254,1249.743145952864,18373.510906085445
2.7313656828414206,895.8827331375743,896.0678386975944,0.08462058078366703,0.0,0.18719152651798016,0.21039515023179473,0.04770558057257778,1249.6479274655412,18386.704381784843
2.7413706853426714,895.9406074163574,896.1271061352378,0.08506006499890405,0.0,0.18732738152818604,0.21025889682242693,0.04770495082945539,1249.5525477989254,18399.883274359985
2.7513756878439217,895.998497488709,896.186345289471,0.0855002917251592,0.0,0.18746346603759304,0.21012241308553306,0.04770431977707694,1249.4570068536373,18413.047618929653
2.7613806903451725,896.0564063736774,896.245558208771,0.08594126142036283,0.0,0.18759978018816414,0.20998569887827825,0.04770368741406458,1249.3613045299007,18426.19745054443
2.7713856928464233,896.1143371647289,896.3047468275577,0.0863829745440785,0.0,0.1877363241223539,0.2098487540573223,0.047703053739018585,1249.2654407275738,18439.33280418842
2.7813906953476737,896.172293042729,896.3639129646989,0.08682543155734526,0.0,0.18787309798306,0.20971157847886876,0.04770241875051853,1249.1694153461854,18452.453714781648
2.7913956978489245,896.2302772900372,896.4230583214598,0.08726863292252006,0.0,0.18801010191357564,0.2095741719987133,0.04770178244712448,1249.0732282849672,18465.560217182723
2.801400700350175,896.2882933062685,896.4821844786085,0.087712579103119,0.0,0.18814733605754116,0.20943653447229274,0.04770114482737796,1248.9768794428915,18478.652346191506
2.8114057028514257,896.3463446243104,896.5412928941338,0.08815727056364527,0.0,0.18828480055889169,0.20929866575473827,0.04770050588980333,1248.8803687187064,18491.730136552695
2.8214107053526765,896.4044349289844,896.6003848994228,0.08860270776942065,0.0,0.18842249556180593,0.2091605657009274,0.04769986563290892,1248.7836960109757,18504.79362295919
2.831415707853927,896.462568076185,896.659461695983,0.08904889118640359,0.0,0.18856042121065075,0.20902223416553994,0.047699224055188345,1248.6868612181156,18517.842840056346
2.8414207103551776,896.5207481139776,896.7185243514753,0.0894958212810042,0.0,0.18869857764992493,0.20888367100311558,0.04769858115512179,1248.589864238439,18530.877822446426
2.851425712856428,896.5789793062286,896.7775737949629,0.08994349851989106,0.0,0.1888369650242006,0.20874487606811296,0.047697936931177465,1248.4927049701957,18543.898604693528
2.861430715357679,896.6372661564237,896.8366108129188,0.09039192336978967,0.0,0.18897558347806162,0.20860584921497224,0.04769729138181303,1248.3953833116173,18556.905221329253
2.8714357178589296,896.6956134358795,896.8956360436022,0.09084109629727262,0.0,0.18911443315604007,0.20846659029817982,0.04769664450547708,1248.2978991609634,18569.897706858643
2.88144072036018,896.7540262121847,896.9546499723763,0.09129101776854122,0.0,0.18925351420254952,0.20832709917233566,0.04769599630061079,1248.20025241657,18582.876095766977
2.8914457228614308,896.8125098809494,897.0136529263916,0.09174168824919869,0.0,0.18939282676181637,0.2081873756922234,0.047695346765649495,1248.1024429768995,18595.840422527082
2.901450725362681,896.8710702010903,897.0726450688624,0.09219310820401033,0.0,0.18953237097780673,0.20804741971288432,0.047694695899024475,1248.0044707405928,18608.79072160745
2.911455727863932,896.9297133302091,897.1316263946395,0.09264527809666193,0.0,0.18967214699415305,0.20790723108969197,0.047694043699164704,1247.9063356065233,18621.727027481047
2.9214607303651827,896.9884458667644,897.1905967244879,0.09309819838949822,0.0,0.1898121549540743,0.20776680967843295,0.04769339016449876,1247.8080374738536,18634.649374635046
2.931465732866433,897.0472748918075,897.2495557013297,0.09355186954326314,0.0,0.1899523950002975,0.207626155335387,0.04769273529345669,1247.709576242094,18647.557797581365
2.941470735367684,897.1062080159602,897.3085027865284,0.09400629201682696,0.0,0.19009286727497418,0.2074852679174114,0.04769207908447209,1247.6109518111623,18660.452330868226
2.9514757378689342,897.1652534308668,897.367437257067,0.0944614662669023,0.0,0.19023357191959442,0.2073441472820284,0.047691421535984053,1247.5121640814446,18673.333009092858
2.961480740370185,897.2244199603957,897.4263582054552,0.0949173927477709,0.0,0.19037450907490344,0.20720279328751,0.04769076264643929,1247.4132129538577,18686.19986691495
2.971485742871436,897.2837171216404,897.4852645399909,0.0953740719109845,0.0,0.19051567888081095,0.20706120579296974,0.0476901024142942,1247.3140983299138,18699.05293907189
2.981490745372686,897.3431551838287,897.5441549893076,0.09583150420509061,0.0,0.19065708147630742,0.20691938465844792,0.047689440838017,1247.2148201117811,18711.89226039464
2.991495747873937,897.4027452348879,897.6030281093123,0.09628969007534917,0.0,0.1907987169993781,0.20677732974499885,0.04768877791608966,1247.1153782023468,18724.71786582536
3.0015007503751874,897.462499252657,897.6618822943667,0.096748629963457,0.0,0.1909405855869191,0.20663504091477577,0.047688113647009936,1247.015772505277,18737.529790436616
3.011505752876438,897.5224301747612,897.7207157944583,0.09720832430731127,0.0,0.1910826873746654,0.20649251803110436,0.04768744802929311,1246.9160029250688,18750.328069451236
3.0215107553776885,897.5825519812178,897.7795267374623,0.09766877354076324,0.0,0.19122502249711595,0.2063497609585583,0.04768678106147364,1246.816069367105,18763.112738265263
3.0315157578789393,897.6428797712467,897.8383131601806,0.09812997809344544,0.0,0.19136759108748103,0.206206769563013,0.04768611274210646,1246.7159717376917,18775.883832470903
3.04152076038019,897.7034298498683,897.8970730476792,0.09859193839062098,0.0,0.1915103932776362,0.20606354371169205,0.04768544306976789,1246.615709944092,18788.64138788238
3.0515257628814405,897.7642198170374,897.9558043837561,0.09905465485309896,0.0,0.1916534291980965,0.2059200832731934,0.04768477204305609,1246.5152838945437,18801.385440563532
3.0615307653826913,897.8252686524702,898.014505213485,0.09951812789725002,0.0,0.19179669897802118,0.20577638811748453,0.047684099660590874,1246.4146934982562,18814.116026855932
3.0715357678839417,897.8865968142484,898.0731737210469,0.09998235793508356,0.0,0.1919402027452366,0.20563245811587885,0.04768342592101274,1246.3139386653936,18826.833183411385
3.0815407703851925,897.9482263241473,898.1318083228763,0.10044734537448921,0.0,0.19208394062630965,0.20548829314096104,0.047682750822980895,1246.2130193070218,18839.53694722339
3.0915457728864433,898.0101808626675,898.1904077804169,0.10091309061959643,0.0,0.19222791274665665,0.20534389306647638,0.04768207436517013,1246.1119353350266,18852.22735566268
3.1015507753876936,898.0724858596909,898.2489713341865,0.10137959407132421,0.0,0.19237211923071015,0.20519925776716075,0.04768139654626634,1246.0106866619958,18864.90444651415
3.1115557778889444,898.1351685742309,898.3074988576684,0.10184685612814844,0.0,0.19251656020215177,0.20505438711850418,0.04768071736496027,1245.9092732010479,18877.56825801371
3.121560780390195,898.1982581838525,898.3659910420645,0.10231487718710178,0.0,0.19266123578421546,0.20490928099644212,0.04768003681993936,1245.8076948656105,18890.218828890636
3.1315657828914456,898.2617858479913,898.4244495996701,0.10278365764507474,0.0,0.19280614610008276,0.20476393927695388,0.04767935490987736,1245.705951569136,18902.85619840666
3.1415707853926964,898.3257847757,898.482877501031,0.10325319790043475,0.0,0.1929512912733741,0.20461836183556303,0.04767867163342131,1245.6040432247419,18915.480406400144
3.1515757878939468,898.3902902751612,898.5412792386992,0.10372349835502792,0.0,0.1930966714287565,0.20447254854671942,0.0476779869891755,1245.5019697447694,18928.091493330012
3.1615807903951976,898.4553397812153,898.5996611112861,0.10419455941656441,0.0,0.1932422866926679,0.2043264992830629,0.04767730097568257,1245.3997310402601,18940.68950031814
3.171585792896448,898.520972880375,898.6580315487631,0.10466638150151936,0.0,0.19338813719419778,0.20418021391452815,0.047676613591400206,1245.2973270203113,18953.2744691974
3.1815907953976987,898.5872312935292,898.7164014398378,0.10513896503844208,0.0,0.19353422306609225,0.20403369230732293,0.04767592483467495,1245.1947575913493,18965.846442552578
3.1915957978989495,898.6541588513286,898.7747844953974,0.10561231047187156,0.0,0.19368054444594254,0.20388693432271962,0.047675234703710954,1245.0920226562644,18978.405463766612
3.2016008004002,898.7218014336847,898.833197616673,0.10608641826678106,0.0,0.19382710147753496,0.2037399398156831,0.04767454319653463,1244.9891221134312,18990.951577062828
3.2116058029014507,898.7902068759946,898.8916612573292,0.10656128891350687,0.0,0.1939738943123475,0.2035927086333496,0.047673850310955466,1244.8860558556205,19003.484827543372
3.221610805402701,898.8594248559292,898.9501998068649,0.10703692293345925,0.0,0.1941209231112835,0.20344524061326333,0.047673156044520486,1244.7828237687393,19016.005261231323
3.231615807903952,898.9295067292949,899.0088419187158,0.10751332088508621,0.0,0.19426818804648335,0.20329753558153604,0.047672460394466806,1244.6794257305157,19028.512925100815
3.2416208104052027,899.0005053464952,899.0676208427606,0.10799048337065077,0.0,0.1944156893033818,0.20314959335075444,0.04767176335766755,1244.5758616090036,19041.007867111068
3.251625812906453,899.0724748260249,899.1265746952372,0.10846841104333407,0.0,0.19456342708286486,0.20300141371778754,0.047671064930575054,1244.4721312610159,19053.490136231354
3.261630815407704,899.1454702957968,899.1857466627039,0.10894710461461606,0.0,0.1947114016035113,0.20285299646150862,0.04767036510916193,1244.3682345304937,19065.959782459297
3.271635817908954,899.2195476076107,899.2451851665975,0.10942656486237631,0.0,0.19485961310405178,0.20270434134029375,0.04766966388885594,1244.2641712467237,19078.4168568395
3.281640820410205,899.2947630178619,899.304943893631,0.1099067926385441,0.0,0.19500806184569194,0.20255544808966075,0.047668961264478595,1244.1599412226453,19090.861411465692
3.291645822911456,899.3711728495579,899.3650817765457,0.11038778887742666,0.0,0.19515674811464068,0.2024063164196979,0.04766825723017772,1244.0555442530153,19103.293499484935
3.301650825412706,899.448833133219,899.4256628414107,0.11086955460354625,0.0,0.19530567222448927,0.20225694601264446,0.04766755177936396,1243.9509801126787,19115.71317508836
3.311655827913957,899.5277992394202,899.4867559472262,0.11135209093913005,0.0,0.19545483451848494,0.2021073365205787,0.047666844904649466,1243.846248554913,19128.120493494076
3.3216608304152073,899.6081254997829,899.5484344394511,0.11183539911174897,0.0,0.19560423537184937,0.20195748756305928,0.04766613659778503,1243.7413493097445,19140.51551092736
3.331665832916458,899.6898648407209,899.6107756582811,0.11231948046038019,0.0,0.19575387519361792,0.2018073987252542,0.047665426849609296,1243.6362820826077,19152.898284583862
3.341670835417709,899.7730684148693,899.6738603865444,0.11280433644169997,0.0,0.19590375442854868,0.20165706955599763,0.04766471564999552,1243.5310465529578,19165.268872593966
3.3516758379189593,899.8577852577424,899.7377721857316,0.11328996863476362,0.0,0.1960538735585413,0.20150649956634561,0.04766400298781054,1243.4256423732322,19177.62733397344
3.36168084042021,899.944061969148,899.8025966710378,0.11377637874470213,0.0,0.1962042331037567,0.20135568822843464,0.047663288850881017,1243.3200691680358,19189.97372856844
3.3716858429214605,900.0319424103427,899.8684207376431,0.11426356860586522,0.0,0.19635483362356776,0.20120463497451177,0.04766257322596304,1243.2143265334441,19202.308116997443
3.3816908454227113,900.1214674603506,899.9353317481788,0.11475154018260969,0.0,0.196505675716795,0.2010533391966916,0.04766185609873,1243.108414036825,19214.63056058115
3.391695847923962,900.2126747833926,900.0034167160989,0.11524029557001197,0.0,0.19665676002191787,0.20090180024673632,0.04766113745375988,1243.0023312166788,19226.941121274303
3.4017008504252124,900.3055986584257,900.0727614970875,0.11572983699237349,0.0,0.19680808721661566,0.20075001743651813,0.04766041727453938,1242.8960775829635,19239.23986158874
3.4117058529264632,900.4002698466276,900.143450017242,0.11622016680069336,0.0,0.19695965801699336,0.20059799003879994,0.0476596955434752,1242.7896526176469,19251.52684451526
3.4217108554277136,900.4967154878376,900.2155635357688,0.11671128746933526,0.0,0.1971114731765624,0.20044571728826518,0.04765897224191043,1242.683055775437,19263.802133444664
3.4317158579289644,900.5949590688647,900.2891799965859,0.11720320159053305,0.0,0.19726353348456416,0.20029319838321546,0.047658247350157605,1242.5762864849873,19276.065792084824
3.441720860430215,900.6950203977921,900.3643734245628,0.11769591186890926,0.0,0.1974158397642959,0.2001404324872638,0.047657520847529646,1242.4693441501017,19288.317884380776
3.4517258629314655,900.7969156436636,900.4412134315257,0.11818942111411128,0.0,0.19756839287086442,0.19998741873160986,0.04765679271238517,1242.3622281513474,19300.558474433168
3.4617308654327164,900.9006573999087,900.5197648032427,0.11868373223291974,0.0,0.19772119368877822,0.1998341562174782,0.04765606292217645,1242.2549378477918,19312.787626419475
3.4717358679339667,901.00625476888,900.6000871593952,0.11917884822077784,0.0,0.19787424312936217,0.19968064401873542,0.04765533145349996,1242.1474725788598,19325.005404516858
3.4817408704352175,901.1137134984605,900.6822347435026,0.11967477215204204,0.0,0.198027542127783,0.19952688118490292,0.04765459828215675,1242.0398316664757,19337.211872828302
3.4917458729364683,901.2230361092214,900.7662562476714,0.1201715071704178,0.0,0.1981810916401291,0.19937286674411236,0.04765386338320802,1241.932014417162,19349.407095311275
3.5017508754377187,901.334222066268,900.852194761466,0.12066905647833104,0.0,0.1983348926401656,0.19921859970639055,0.047653126731038664,1241.8240201243714,19361.591135710943
3.5117558779389695,901.4472679520468,900.9400877734466,0.12116742332624862,0.0,0.19848894611607243,0.19906407906696058,0.04765238829941869,1241.715848070832,19373.76405749725
3.52176088044022,901.5621676452589,901.02996722707,0.12166661100169732,0.0,0.1986432530670881,0.19890930380963623,0.0476516480615639,1241.6074975309534,19385.925923805076
3.5317658829414706,901.6789125235812,901.1218596706184,0.12216662281787295,0.0,0.19879781450002815,0.19875427291034373,0.04765090599019951,1241.4989677733254,19398.076797381542
3.5417708854427215,901.7974916464174,901.2157864043701,0.12266746210228797,0.0,0.19895263142581116,0.1985989853406324,0.047650162057617816,1241.3902580632048,19410.216740534033
3.551775887943972,901.9178919586084,901.3117637122771,0.12316913218509064,0.0,0.19910770485588392,0.1984434400712871,0.04764941623573803,1241.2813676650733,19422.345815086333
3.5617808904452226,902.0400984806864,901.4098030993822,0.12367163638735115,0.0,0.1992630357986331,0.19828763607595193,0.04764866849616166,1241.1722958452015,19434.464082337206
3.571785892946473,902.1640944949305,901.5099115499781,0.12417497800906734,0.0,0.1994186252557074,0.19813157233484135,0.04764791881022544,1241.0630418742717,19446.571603022574
3.5817908954477238,902.289861735043,901.6120918278654,0.1246791603172112,0.0,0.19957447421835106,0.19797524783843912,0.04764716714905284,1240.9536050299903,19458.668437285512
3.5917958979489746,902.4173805548421,901.7163427483267,0.12518418653321964,0.0,0.199730583663561,0.19781866159137107,0.04764641348360051,1240.843984599819,19470.754644644832
3.601800900450225,902.5466301016548,901.8226594907966,0.12569005982057205,0.0,0.19988695455026917,0.19766181261625065,0.04764565778470342,1240.7341798836858,19482.830283972882
3.6118059029514757,902.6775884728844,901.9310338891763,0.12619678327180975,0.0,0.20004358781534826,0.19750469995769943,0.047644900023115624,1240.6241901968133,19494.895413473794
3.621810905452726,902.8102328645643,902.0414547208757,0.1267043598949793,0.0,0.2002004843694364,0.1973473226865465,0.04764414016954841,1240.5140148726725,19506.950090664777
3.631815907953977,902.9445397139276,902.1539080029738,0.12721279260010185,0.0,0.20035764509276682,0.1971896799040208,0.047643378194705065,1240.403653265927,19518.99437236458
3.6418209104552277,903.0804848257472,902.2683772549448,0.1277220841840442,0.0,0.20051507083049916,0.19703177074643963,0.04764261406931276,1240.2931047557224,19531.02831467851
3.651825912956478,903.2180434949552,902.3848437734705,0.12823223731559125,0.0,0.20067276238811038,0.19687359438983662,0.047641847764151264,1240.1823687489282,19543.051972992802
3.661830915457729,903.3571906154936,902.5032868783958,0.1287432545188852,0.0,0.20083072052627662,0.1967151500550956,0.04764107925007884,1240.071444683736,19555.065401967022
3.6718359179589792,903.4979007810451,902.6236841488321,0.12925513815568562,0.0,0.20098894595538674,0.1965564370134521,0.04764030849805579,1239.9603320335073,19567.068655529423
3.68184092046023,903.6401483771589,902.7460116506836,0.1297678904072106,0.0,0.20114743932992327,0.19639745459212551,0.047639535479164594,1239.84903031071,19579.061786877686
3.691845922961481,903.783907663113,902.8702441371391,0.13028151325278103,0.0,0.20130620124184978,0.19623820218094326,0.04763876016462887,1239.7375390715483,19591.044848475307
3.701850925462731,903.9291528466348,902.9963552468637,0.13079600844854994,0.0,0.20146523221402185,0.19607867923893982,0.047637982525828765,1239.6258579205705,19603.017892056512
3.711855927963982,904.0758581497296,903.1243176782959,0.13131137750280003,0.0,0.2016245326925319,0.19591888530202084,0.047637202534315234,1239.5139865160174,19614.98096862764
3.7218609304652324,904.2239978674432,903.2541033528212,0.13182762164909054,0.0,0.2017841030383845,0.19575881999129555,0.047636420161822214,1239.4019245756376,19626.934128471195
3.731865932966483,904.3735464186602,903.3856835653656,0.13234474181802883,0.0,0.2019439435187429,0.1955984830218363,0.04763563538027616,1239.2896718827944,19638.877421153684
3.741870935467734,904.5244783913481,903.5190291170779,0.1328627386033531,0.0,0.20210405429640943,0.19543787421320413,0.047634848161805694,1239.1772282938075,19650.81089552868
3.7518759379689843,904.6767685798021,903.6541104398433,0.13338161222777506,0.0,0.20226443541922912,0.19527699350004926,0.0476340584787477,1239.064593745342,19662.73459974749
3.761880940470235,904.8303920171847,903.7908977049154,0.13390136250238216,0.0,0.20242508680749385,0.19511584094471077,0.04763326630365379,1238.9517682631906,19674.648581265206
3.7718859429714855,904.9853240019763,903.9293609215902,0.13442198878238404,0.0,0.2025860082402107,0.1949544167509512,0.04763247160929482,1238.8387519718444,19686.55288684931
3.7818909454727363,905.1415401180737,904.0694700244251,0.1349434899197096,0.0,0.20274719934039104,0.1947927212786695,0.047631674368663834,1238.725545104747,19698.447562590638
3.791895947973987,905.2990162520762,904.2111949500038,0.13546586420588974,0.0,0.20290865955732532,0.19463075506162808,0.047630874554979614,1238.6121480166457,19710.332653909583
3.8019009504752375,905.4577286028401,904.3545057038853,0.13598910931411798,0.0,0.20307038814860012,0.1944685188254366,0.04763007214168735,1238.4985611961215,19722.20820556892
3.8119059529764883,905.6176536888917,904.4993724185638,0.13651322222971543,0.0,0.20323238415851658,0.1943060135091343,0.04762926710246024,1238.3847852806273,19734.07426168141
3.8219109554777386,905.7787683502692,904.6457654028445,0.13703819917464533,0.0,0.20339464639466137,0.1941432402886194,0.047628459411199815,1238.270821072808,19745.930865719885
3.8319159579789894,905.9410497454544,904.7936551823155,0.13756403552564175,0.0,0.203557173402494,0.19398020060206117,0.047627649042035154,1238.1566695582076,19757.77806052847
3.8419209604802402,906.1044753463117,904.9430125339579,0.13809072571604222,0.0,0.20371996343487753,0.19381689618036935,0.0476268359693232,1238.0423319264937,19769.615888329266
3.8519259629814906,906.269022925965,905.0938085111295,0.1386182631358526,0.0,0.20388301442105844,0.19365332907821323,0.0476260201676467,1237.9278095930688,19781.444390734752
3.8619309654827414,906.4346705452227,905.246014463955,0.13914664001133614,0.0,0.20404632392929203,0.1934895017113957,0.04762520161181368,1237.813104225107,19793.263608754543
3.8719359679839918,906.601396533458,905.3996020520212,0.13967584727528595,0.0,0.20420988912657545,0.1933254168971193,0.047624380276855775,1237.6982177696048,19805.07358280461
3.8819409704852426,906.7691794652781,905.5545432504185,0.1402058744251014,0.0,0.2043737067345948,0.1931610778980377,0.04762355613802616,1237.5831524840698,19816.87435271652
3.891945972986493,906.9379981342945,905.710810351795,0.14073670935396787,0.0,0.2045377729773249,0.19299648847465545,0.04762272917079892,1237.467910973027,19828.665957742454
3.9019509754877437,907.1078315205551,905.8683759596425,0.1412683381789063,0.0,0.20470208352765584,0.19283165293870005,0.04762189935086628,1237.3524962251975,19840.448436564995
3.9119559779889945,907.278658755197,906.0272129786682,0.141800745033326,0.0,0.20486663344300335,0.19266657621751082,0.04762106665413802,1237.2369116583588,19852.221827300993
3.921960980490245,907.4504590791839,906.1872945978138,0.14233391184582167,0.0,0.20503141709664893,0.19250126392269784,0.04762023105673985,1237.121161167177,19863.986167507708
3.9319659829914957,907.62321179742,906.3485942678259,0.14286781809676655,0.0,0.20519642810218772,0.1923357224256933,0.04761939253501202,1237.0052491758377,19875.741494188012
3.941970985492746,907.796896227431,906.5110856744221,0.14340244053174755,0.0,0.20536165922458277,0.19216995894669736,0.047618551065509496,1236.889180700016,19887.487843791492
3.951975987993997,907.9714916423877,906.6747427037266,0.14393775287055455,0.0,0.20552710228983698,0.19200398164500523,0.04761770662500058,1236.7729614098014,19899.2252522194
3.9619809904952477,908.1469772077577,906.8395394037871,0.14447372545646522,0.0,0.20569274807613597,0.19183779972786486,0.04761685919046804,1236.656597705539,19910.95375482324
3.971985992996498,908.3233319115456,907.005449938771,0.14501032488757512,0.0,0.20585858619941724,0.19167142356490852,0.04761600873910952,1236.54009679755,19922.67338640542
3.981990995497749,908.5005344880976,907.1724485375125,0.145547513610169,0.0,0.2060246049871577,0.19150486481436546,0.04761515524833869,1236.4234667940614,19934.384181217825
3.991995997998999,908.6785633324663,907.3405094354032,0.14608524944664422,0.0,0.2061907913318481,0.1913381365695898,0.0476142986957884,1236.30671680329,19946.08617295617
4.00200100050025,908.857396410046,907.5096068097332,0.1466234851202676,0.0,0.2063571305434838,0.191171253506571,0.04761343905931265,1236.1898570362105,19957.77939475734
4.012006003001501,909.0370111538,907.6797147075421,0.14716216768507037,0.0,0.20652360617261323,0.19100423206088843,0.04761257631699161,1236.0728989298368,19969.463879189512
4.022011005502751,909.2173843553413,907.8508069664791,0.14770123793948148,0.0,0.20669019982833844,0.19083709060971388,0.04761171044713637,1235.9558552740211,19981.13965824395
4.0320160080040015,909.3984920464998,908.022857128434,0.14824062978185898,0.0,0.20685689097828197,0.19066984967184863,0.04761084142829507,1235.8387403508175,19992.806763323606
4.042021010505253,909.5803093668992,908.1958383432337,0.14878026947795828,0.0,0.20702365672122153,0.190502532135094,0.04760996923926141,1235.721570092888,20004.465225226748
4.052026013006503,909.7628104292868,908.36972326784,0.14932007493821947,0.0,0.20719047156277098,0.19033516348057583,0.0476090938590827,1235.6043622397883,20016.11507413295
4.0620310155077535,909.945968164876,908.5444839525793,0.1498599548604159,0.0,0.2073573071492733,0.19016777204885837,0.04760821526707167,1235.4871365233662,20027.756339580385
4.072036018009005,910.1297541662171,908.7200917227617,0.1503998078809289,0.0,0.20752413200437028,0.19000038930338273,0.047607333442818305,1235.3699148512976,20039.389050444533
4.082041020510255,910.3141385179972,908.8965170511575,0.15093952165608035,0.0,0.20769091124386319,0.18983305011561477,0.047606448366204084,1235.252721505746,20051.013234912258
4.092046023011505,910.499089612317,909.0737294186346,0.15147897185604162,0.0,0.20785760626343996,0.18966579307732903,0.047605560017419286,1235.1355833609302,20062.628920449963
4.102051025512757,910.6845739695613,909.2516971755966,0.1520180212183344,0.0,0.20802417444489696,0.18949866079439773,0.04760466837698001,1235.0185300878034,20074.23613377389
4.112056028014007,910.8705560346622,909.4303873859341,0.15255651845299534,0.0,0.20819056881632128,0.18933170022662263,0.04760377342575055,1234.9015943908132,20085.834900809477
4.122061030515257,911.0569979843167,909.6097656749885,0.1530942972450312,0.0,0.2083567377424693,0.18916496299737057,0.04760287514496552,1234.784812223624,20097.425246653096
4.132066033016508,911.2438595260696,909.7897960699017,0.15363117522328879,0.0,0.20852262460472107,0.18899850571363502,0.04760197351625563,1234.6682230121007,20109.007195527232
4.142071035517759,911.4310976923889,909.9704408335455,0.15416695292401297,0.0,0.20868816747938673,0.1888323902877488,0.04760106852167709,1234.551869878446,20120.58077072961
4.152076038019009,911.6186666612269,910.1516603129418,0.15470141294896825,0.0,0.2088532988764007,0.18866668419870775,0.047600160143740494,1234.4357998232651,20132.14599458533
4.16208104052026,911.8065175616533,910.3334127740562,0.1552343190610892,0.0,0.20901794545862748,0.18850146077288776,0.04759924836544662,1234.320063921139,20143.702888386302
4.172086043021511,911.9945983234269,910.5156542623682,0.15576541558842075,0.0,0.2091820278568542,0.18833679936907405,0.04759833317032085,1234.2047174495397,20155.251472335953
4.182091045522761,912.1828535398155,910.6983384682143,0.15629442694730739,0.0,0.2093454605217968,0.18817278552647926,0.04759741454245201,1234.0898199919518,20166.791765486883
4.192096048024012,912.3712243606591,910.8814166075474,0.15682105739849359,0.0,0.20950815164839917,0.18800951104047162,0.047596492466534523,1233.9754354906413,20178.323785674555
4.202101050525263,912.5596484517912,911.0648373441674,0.15734499124661552,0.0,0.20967000323775184,0.1878470739006807,0.04759556692790834,1233.8616322035364,20189.8475494578
4.212106053026513,912.7480599763484,911.2485467201192,0.15786589323485473,0.0,0.20983091121958997,0.1876855781685303,0.04759463791260663,1233.7484826189147,20201.363072047177
4.222111055527764,912.9363896712501,911.4324881479905,0.1583834095541255,0.0,0.20999076576553063,0.18752513366402768,0.047593705407398476,1233.6360632372007,20212.870367245945
4.232116058029014,913.1245649776982,911.6166024344735,0.15889716923541858,0.0,0.21014945172123903,0.1873658555336274,0.04759276939983566,1233.5244542699097,20224.36944738643
4.242121060530265,913.3125102546428,911.80082785593,0.1594067860952681,0.0,0.21030684921027715,0.1872078636464121,0.04759182987829981,1233.4137392189866,20235.860323269433
4.252126063031516,913.5001470948387,911.9851003040036,0.15991186131393098,0.0,0.21046283443433755,0.18705128179388497,0.04759088683204358,1233.304004319323,20247.343004118007
4.262131065532766,913.6873947090427,912.1693534715557,0.16041198648920765,0.0,0.21061728062111357,0.18689623674212955,0.04758994025123792,1233.1953378784249,20258.817497524353
4.272136068034017,913.8741704251597,912.3535191225011,0.16090674735092245,0.0,0.2107700591772295,0.18674285707890217,0.04758899012700825,1233.087829473213,20270.28380942067
4.282141070535268,914.0603902596221,912.5375274102186,0.16139572792785212,0.0,0.21092104098160858,0.18659127192028815,0.0475880364514723,1232.9815690489877,20281.741944050988
4.292146073036518,914.2459695758653,912.7213072605392,0.16187851520659982,0.0,0.21107009783153752,0.18644160946465776,0.0475870792177727,1232.876645912011,20293.191903956722
4.302151075537768,914.4308238062738,912.9047868104587,0.16235470407206296,0.0,0.2112171039761361,0.18629399545921066,0.04758611842009891,1232.773147661193,20304.63368998418
4.31215607803902,914.6148692271736,913.0878938868243,0.16282390254274273,0.0,0.21136193774134837,0.18614855157499993,0.04758515405371169,1232.6711590560194,20316.067301292544
4.32216108054027,914.7980237545341,913.270556521661,0.1632857369343487,0.0,0.21150448313267844,0.18600539380420114,0.047584186114950286,1232.5707608999817,20327.492735393353
4.33216608304152,914.9802077480342,913.4527034841879,0.16373985697913793,0.0,0.21164463142419288,0.18586463087111416,0.04758321460123934,1232.4720289335717,20338.909988194453
4.3421710855427715,915.1613447959099,913.6342648205666,0.16418594064312708,0.0,0.21178228265374993,0.18572636273693183,0.047582239511085755,1232.375032792607,20350.319054062817
4.352176088044022,915.3413624316696,913.8151723716296,0.16462369830715373,0.0,0.2119173469207767,0.18559067930195342,0.047581260844063486,1232.2798351041101,20361.719925907488
4.362181090545272,915.5201928143355,913.9953602803446,0.16505287659619036,0.0,0.2120497455748741,0.18545765921697055,0.047580278600799004,1232.186490658249,20373.112595264498
4.3721860930465235,915.6977732717189,914.1747654356715,0.16547326109982188,0.0,0.21217941206024962,0.1853273690388136,0.04757929278293928,1232.0950458200446,20384.497052406736
4.382191095547774,915.8740467698759,914.3533278803142,0.16588467851404334,0.0,0.2123062925805387,0.1851998625655114,0.04757830339312052,1232.0055380662102,20395.873286453323
4.392196098049024,916.0489622518921,914.5309911505398,0.166286997790451,0.0,0.21243034645553055,0.1850751804795393,0.04757731043492796,1231.9179957366289,20407.241285490454
4.402201100550275,916.2224748324226,914.7077025338929,0.16668013025199968,0.0,0.21255154615712513,0.18495335031183208,0.04757631391284787,1231.8324380092956,20418.601036699114
4.412206103051526,916.3945459180603,914.8834132856173,0.1670640291718518,0.0,0.21266987717864078,0.1848343865724475,0.04757531383222194,1231.748874991362,20429.95252647885
4.422211105552776,916.5651431517792,915.0580787362381,0.167438688166193,0.0,0.21278533753598186,0.1847182912493625,0.04757431019919031,1231.667308066642,20441.295740579095
4.4322161080540265,916.7342403032079,915.2316583639268,0.1678041392398618,0.0,0.21289793716104358,0.18460505441503544,0.04757330302063908,1231.5877303181967,20452.630664222255
4.442221110555278,916.9018170448265,915.4041157904,0.16816045011482117,0.0,0.21300769707251166,0.1844946550555699,0.04757229230414338,1231.5101271059957,20463.95728222572
4.452226113056528,917.0678586442812,915.5754187141017,0.1685077210878923,0.0,0.21311464840054364,0.1843870620459971,0.047571278057909186,1231.434476746366,20475.275579117868
4.4622311155577785,917.2323556364884,915.7455388251615,0.16884608180404165,0.0,0.21321883138523717,0.18428223515177333,0.047570260290719646,1231.3607512097094,20486.58553924568
4.47223611805903,917.3953034056146,915.914451644964,0.16917568759101512,0.0,0.2133202942389344,0.18418012616643897,0.047569239011876985,1231.2889169130674,20497.887146876157
4.48224112056028,917.5567017852217,916.0821363698313,0.16949671597995736,0.0,0.21341909206625323,0.18408067999155428,0.04756821423115079,1231.2189354724753,20509.18038628796
4.4922461230615305,917.7165546236898,916.2485756755098,0.1698093631443974,0.0,0.2135152857587737,0.18398383574198027,0.04756718595872575,1231.1507644729686,20520.465241855014
4.502251125562781,917.874869350287,916.4137555058214,0.17011384048346087,0.0,0.21360894093448488,0.18388952780640003,0.04756615420515177,1231.0843582073978,20531.741698120277
4.512256128064032,918.0316565712076,916.5776648727849,0.17041037146892926,0.0,0.21370012695912743,0.18379768682594752,0.047565118981298636,1231.0196683581994,20543.00973986249
4.5222611305652824,918.1869296550041,916.7402956263224,0.1706991886244422,0.0,0.21378891600854366,0.18370824063182878,0.04756408029831054,1230.9566446505867,20554.26935215218
4.532266133066533,918.3407043675462,916.9016422518843,0.17098053086289022,0.0,0.21387538224220787,0.1836211150717661,0.04756303816756587,1230.8952354282894,20565.52052040214
4.542271135567784,918.492998518347,917.0617016576334,0.1712546410494353,0.0,0.21395960104678505,0.18353623476641476,0.04756199260063833,1230.8353881805058,20576.763230409146
4.552276138069034,918.6438316391245,917.2204729709896,0.1715217638722411,0.0,0.2140416483751977,0.18345352377027327,0.04756094360926095,1230.7770500023148,20587.9974683884
4.562281140570285,918.7932246993948,917.3779573554198,0.17178214398581018,0.0,0.21412160017030898,0.18337290614798005,0.04755989120529343,1230.7201679961452,20599.223221004515
4.572286143071536,918.9411998397258,917.5341578200497,0.17203602442718952,0.0,0.21419953187329668,0.18329430646591896,0.04755883540069096,1230.6646896142352,20610.440475392777
4.582291145572786,919.0877801452049,917.6890790578744,0.17228364527181692,0.0,0.2142755180064134,0.1832176502094421,0.04755777620747629,1230.61056294928,20621.64921917977
4.592296148074037,919.2329894387215,917.8427272839554,0.17252524252703055,0.0,0.21434963182951267,0.18314286412632697,0.04755671363771354,1230.5577369736827,20632.849440496793
4.602301150575287,919.3768521021391,917.9951100876489,0.1727610472408888,0.0,0.21442194506340606,0.1830698765034039,0.047555647703484354,1230.5061617322506,20644.041127989814
4.612306153076538,919.5193929219574,918.146236301218,0.17299128476549863,0.0,0.21449252766118077,0.18299861739522508,0.04755457841686591,1230.455788501481,20655.22427082854
4.622311155577789,919.6606369532245,918.2961158688164,0.1732161742358835,0.0,0.21456144764641655,0.18292901878583448,0.04755350578991086,1230.4065699022406,20666.398858708228
4.632316158079039,919.8006094052033,918.444759736116,0.17343592813439157,0.0,0.21462877097795763,0.1828610147239847,0.04755242983462886,1230.358459993946,20677.564881853854
4.64232116058029,919.9393355421569,918.592179741829,0.1736507520201686,0.0,0.21469456146591792,0.18279454140712065,0.04755135056296976,1230.3114143330558,20688.722331018682
4.652326163081541,920.0768406000901,918.7383885205197,0.17386084435405638,0.0,0.21475888071730778,0.1827295372357434,0.04755026798680835,1230.2653900109226,20699.871197481985
4.662331165582791,920.2131497157974,918.8833994158351,0.1740663963824867,0.0,0.21482178809997368,0.1826659428494614,0.04754918211793,1230.2203456788964,20711.01147304735
4.672336168084042,920.3482878684957,919.0272263958481,0.17426759215432278,0.0,0.21488334074780402,0.18260370112177687,0.047548092968018325,1230.1762415446717,20722.143150035474
4.682341170585293,920.4822798299601,919.1698839812714,0.17446460853031512,0.0,0.21494359356364454,0.18254275715716262,0.047547000548643074,1230.1330393702387,20733.266221280806
4.692346173086543,920.6151501245071,919.3113871754849,0.17465761529523713,0.0,0.2150025992540857,0.1824830582562683,0.04754590487124985,1230.090702447629,20744.380680123595
4.702351175587793,920.7469229960517,919.4517514022488,0.17484677528961032,0.0,0.21506040837033114,0.18242455387504583,0.04754480594715054,1230.0491955704258,20755.486520402654
4.712356178089045,920.8776223803757,919.5909924494466,0.17503224455265243,0.0,0.21511706935255137,0.1823671955803896,0.047543703787514165,1230.0084850028475,20766.583736448978
4.722361180590295,921.0072718852729,919.7291264152004,0.17521417253973004,0.0,0.21517262859736422,0.18231093698265233,0.04754259840335969,1229.9685384327217,20777.67232307531
4.732366183091545,921.135894772184,919.8661696613478,0.17539270229501236,0.0,0.21522713051141037,0.18225573368206352,0.04754148980554822,1229.929324934149,20788.752275569917
4.742371185592797,921.2635139444026,920.0021387686356,0.17556797068859023,0.0,0.2152806175849404,0.18220154319513948,0.047540378004777055,1229.89081491622,20799.823589686283
4.752376188094047,921.3901519373899,920.1370504967737,0.17574010863759237,0.0,0.21533313046043498,0.18214832488605903,0.047539263011573955,1229.8529800752021,20810.88626163441
4.762381190595297,921.5158309110159,920.2709217479011,0.17590924132147362,0.0,0.21538470799941722,0.18209603989984768,0.04753814483629152,1229.8157933479818,20821.940288072878
4.7723861930965485,921.6405726467858,920.4037695323755,0.17607548843759308,0.0,0.21543538736177187,0.1820446510830564,0.04753702348910342,1229.7792288567941,20832.98566609774
4.782391195597799,921.764398543448,920.5356109383906,0.17623896440476233,0.0,0.21548520406891514,0.1819941229205882,0.04753589897999956,1229.7432618652083,20844.02239323553
4.792396198099049,921.8873296174575,920.666463103421,0.1763997786097948,0.0,0.21553419208031271,0.18194442145917836,0.047534771318783024,1229.707868724809,20855.050467432615
4.8024012006003,922.0093865030701,920.7963431885097,0.17655803562548975,0.0,0.21558238386113265,0.18189551423973993,0.04753364051506694,1229.6730268280598,20866.069887046502
4.812406203101551,922.130589453133,920.9252683545626,0.17671383541995908,0.0,0.21562981044721052,0.18184737023239597,0.04753250657827132,1229.6387145630351,20877.080650837644
4.822411205602801,922.250958343169,921.0532557408224,0.17686727358728999,0.0,0.21567650151663934,0.18179995976488922,0.04753136951762162,1229.6049112635428,20888.082757958815
4.832416208104052,922.3705126727307,921.1803224449661,0.17701844153142346,0.0,0.215722485446837,0.1817532544655124,0.0475302293421458,1229.5715971693585,20899.076207948227
4.842421210605303,922.4892715707102,921.3064855052328,0.17716742668067953,0.0,0.2157677893811282,0.18170722719652607,0.04752908606067345,1229.5387533798385,20910.061000719306
4.852426213106553,922.6072537991374,921.4317618839619,0.17731431267205508,0.0,0.2158124392859438,0.18166185199695828,0.04752793968183431,1229.5063618140637,20921.03713655261
4.862431215607804,922.7244777573396,921.5561684524366,0.17745917952887477,0.0,0.21585646000595726,0.18161710402746678,0.04752679021405682,1229.474405172426,20932.00461608794
4.872436218109055,922.8409614883885,921.6797219776996,0.1776021038494404,0.0,0.21589987532263655,0.18157295951178776,0.04752563766556824,1229.4428668958337,20942.96344031457
4.882441220610305,922.9567226825975,921.802439109643,0.17774315895766926,0.0,0.2159427080009967,0.18152939568998214,0.047524482044393135,1229.411731133137,20953.9136105648
4.8924462231115555,923.0717786844531,921.9243363703102,0.17788241507665217,0.0,0.2159849798434681,0.1814863907645676,0.0475233233583539,1229.3809827035968,20964.855128504463
4.902451225612806,923.1861464975317,922.0454301435726,0.1780199394746481,0.0,0.21602671173520874,0.18144392385520572,0.0475221616150704,1229.3506070653173,20975.787996125648
4.912456228114057,923.2998427898223,922.1657366658189,0.17815579660748107,0.0,0.21606792368830077,0.18140197495450616,0.04752099682195975,1229.3205902844509,20986.71221573924
4.9224612306153075,923.4128839006584,922.2852720183405,0.17829004826610095,0.0,0.21610863488755006,0.18136052488222693,0.047519828986237515,1229.2909190032929,20997.627789966198
4.932466233116558,923.525285844857,922.4040521191974,0.17842275369478017,0.0,0.21614886372717107,0.18131955524858964,0.0475186581149171,1229.2615804147213,21008.53472173161
4.942471235617809,923.6370643199388,922.522092717408,0.17855396972697354,0.0,0.21618862785295578,0.18127904841211154,0.047517484214811265,1229.2325622328176,21019.433014255956
4.9524762381190595,923.7482347111345,922.6394093867649,0.1786837508975877,0.0,0.2162279441971192,0.18123898744476005,0.04751630729253248,1229.2038526685933,21030.32267104869
4.96248124062031,923.8588120969545,922.7560175205841,0.17881214955421884,0.0,0.21626682901282565,0.18119935609742693,0.047515127354493696,1229.1754404059338,21041.20369590132
4.972486243121561,923.9688112558744,922.8719323278368,0.17893921597025778,0.0,0.21630529790929523,0.18116013876482326,0.04751394440691003,1229.1473145771413,21052.07609287962
4.982491245622811,924.0782466705325,922.9871688283293,0.1790649984359136,0.0,0.21634336588005518,0.18112132045722748,0.047512758455798915,1229.1194647432544,21062.93986631817
4.992496248124062,924.1871325347029,923.1017418502349,0.17918954336304072,0.0,0.2163810473354777,0.18108288676794967,0.047511569506982265,1229.0918808713782,21073.795020812533
5.002501250625312,924.2954827580181,923.215666026723,0.17931289537036138,0.0,0.21641835612923158,0.1810448238468801,0.04751037756608726,1229.0645533162588,21084.64156121347
5.012506253126563,924.4033109714292,923.3289557935474,0.1794350973695374,0.0,0.21645530558499793,0.18100711837377428,0.04750918263854779,1229.0374728016707,21095.479492620634
5.022511255627814,924.5106305333842,923.4416253876839,0.1795561906511109,0.0,0.21649190852314562,0.1809697575315789,0.04750798472960643,1229.0106304018343,21106.30882037563
5.032516258129064,924.617454533874,923.5536888448346,0.17967621495421976,0.0,0.21652817728237025,0.18093272898479332,0.047506783844315115,1228.9840175263416,21117.12955005708
5.042521260630315,924.7237958009617,923.6651599992252,0.179795208547049,0.0,0.2165641237446662,0.1808960208544992,0.047505579987537704,1228.9576259027594,21127.94168747355
5.052526263131566,924.8296669051168,923.776052482145,0.17991320829133034,0.0,0.21659975935534664,0.18085962169834094,0.047504373163951064,1228.9314475626838,21138.745238658445
5.062531265632816,924.935080164421,923.8863797215124,0.18003024970878007,0.0,0.21663509514366613,0.18082352048990447,0.047503163378046796,1228.9054748273747,21149.540209864197
5.072536268134067,925.0400476501876,923.9961549421712,0.18014636704636144,0.0,0.216670141743078,0.18078770659846102,0.047501950634133594,1228.8797002936428,21160.3266075562
5.082541270635318,925.1445811907763,924.1053911650155,0.1802615933296453,0.0,0.21670490940779732,0.18075216977240505,0.0475007349363381,1228.8541168223146,21171.10443840826
5.092546273136568,925.2486923776316,924.2141012082989,0.18037596042464296,0.0,0.21673940803199457,0.180716900120062,0.04749951628860772,1228.8287175248597,21181.87370929629
5.102551275637818,925.3523925692136,924.322297687459,0.18048949908667786,0.0,0.2167736471649655,0.18068188809451968,0.04749829469471185,1228.8034957528264,21192.634427293768
5.11255627813907,925.4556928959058,924.4299930160444,0.1806022390118163,0.0,0.21680763602709555,0.18064712447766457,0.047497070158243906,1228.7784450867202,21203.386599666454
5.12256128064032,925.5586042650771,924.5371994070716,0.18071420888651366,0.0,0.2168413835252709,0.1806126003647726,0.04749584268262369,1228.7535593252687,21214.130233867018
5.13256628314157,925.6611373646627,924.6439288732786,0.18082543642867963,0.0,0.21687489826562528,0.18057830715176318,0.047494612271098476,1228.7288324765439,21224.865337530948
5.142571285642822,925.7633026687025,924.7501932294051,0.18093594843536098,0.0,0.21690818856834188,0.18054423652039864,0.047493378926745884,1228.7042587476517,21235.59191847088
5.152576288144072,925.8651104408892,924.8560040928609,0.1810457708199067,0.0,0.21694126247918957,0.1805103804267492,0.047492142652475214,1228.679832536697,21246.309984672578
5.162581290645322,925.9665707391729,924.961372885572,0.1811549286520332,0.0,0.2169741277819603,0.18047673108875686,0.04749090345102958,1228.6555484241198,21257.019544290164
5.172586293146573,926.0676934085195,925.0663108368586,0.18126344611085554,0.0,0.21700679201032483,0.18044328097438075,0.047489661298551866,1228.631401182855,21267.72060564128
5.182591295647824,926.1684892026675,925.1708288951012,0.18137135460810183,0.0,0.21703926245075206,0.18041002279870672,0.047488418663335516,1228.60738402179,21278.413177209546
5.192596298149074,926.2689692360602,925.2749379489948,0.1814786879486255,0.0,0.21707154612620735,0.18037694954036626,0.04748717902021492,1228.5834896323609,21289.097267665868
5.202601300650325,926.3691429863744,925.3786489251128,0.18158546820490223,0.0,0.21710364982994027,0.18034405440765605,0.04748594243170051,1228.559713242969,21299.77288584645
5.212606303151576,926.4690197044987,925.481972558488,0.18169171651899932,0.0,0.21713558014829334,0.18031133081567893,0.04748470887813503,1228.5360502831197,21310.44004073724
5.222611305652826,926.5686084548047,925.5849193911208,0.18179745339838507,0.0,0.2171673434695898,0.1802787723774572,0.0474834783406328,1228.5124963194564,21321.098741469727
5.232616308154077,926.6679181184652,925.6874997738578,0.18190269874021725,0.0,0.2171989459916847,0.18024637289638265,0.04748225080107003,1228.4890470505125,21331.74899731742
5.242621310655328,926.7669573982657,925.7897238699588,0.18200747185950525,0.0,0.21723039373072736,0.18021412635745598,0.04748102624206887,1228.46569830062,21342.390817691252
5.252626313156578,926.8657348216703,925.8916016569457,0.18211179151061352,0.0,0.2172616925278466,0.18018202692060228,0.047479804646988526,1228.4424460152613,21353.02421213638
5.262631315657829,926.964258745002,925.9931429297321,0.1822156759114641,0.0,0.21729284805668125,0.18015006891314253,0.0474785859999117,1228.4192862558377,21363.64919032811
5.272636318159079,927.0625373572366,926.0943573034557,0.18231914276558353,0.0,0.2173238658302387,0.1801182468229356,0.04747737028563244,1228.396215194903,21374.2657620682
5.28264132066033,927.1605786830844,926.19525421563,0.1824222092812369,0.0,0.21735475120684616,0.18008655529242884,0.04747615748964696,1228.373229112026,21384.873937281714
5.292646323161581,927.2583905873323,926.2958429297561,0.18252489219356027,0.0,0.21738550939703935,0.18005498911177065,0.04747494759813898,1228.3503243890068,21395.47372601294
5.302651325662831,927.3559807775976,926.3961325372935,0.18262720778125593,0.0,0.21741614546875504,0.18002354321361883,0.04747374059797174,1228.327497506267,21406.06513842256
5.312656328164082,927.4533568081853,926.4961319609127,0.18272917188587037,0.0,0.21744666435333182,0.17999221266714147,0.04747253647667519,1228.3047450386834,21416.648184784015
5.3226613306653325,927.5505260834489,926.5958499572878,0.1828307999289483,0.0,0.21747707085084844,0.17996099267267962,0.047471335222435136,1228.2820636518773,21427.222875480235
5.332666333166583,927.6474958606497,926.6952951193942,0.1829321069272439,0.0,0.21750736963485684,0.17992987855701548,0.047470136824084685,1228.2594500989285,21437.78922100082
5.342671335667834,927.7442732538565,926.7944758800411,0.1830331075101935,0.0,0.21753756525782314,0.1798988657679329,0.0474689412710908,1228.2369012165975,21448.34723193846
5.3526763381690845,927.840865236427,926.8934005138751,0.183133815933016,0.0,0.21756766215520348,0.17986794987014243,0.04746774855354713,1228.2144139224933,21458.896918986386
5.362681340670335,927.9372786445484,926.9920771406389,0.1832342460921558,0.0,0.2175976646502531,0.17983712654047354,0.04746655866216205,1228.1919852117346,21469.438292935145
5.372686343171585,928.0335201802118,927.0905137278454,0.18333441153871588,0.0,0.21762757695820845,0.17980639156369352,0.04746537158824911,1228.1696121540479,21479.971364669756
5.3826913456728365,928.1295964138583,927.1887180931319,0.18343432549066532,0.0,0.21765740319008747,0.17977574082870873,0.04746418732371891,1228.1472918911265,21490.496145167122
5.392696348174087,928.2255137878708,927.2866979076316,0.18353400084669785,0.0,0.21768714735700698,0.17974517032424808,0.04746300586106696,1228.1250216336364,21501.01264549294
5.402701350675337,928.321278618808,927.3844606979504,0.18363345019659816,0.0,0.21771681337340892,0.17971467613563777,0.04746182719336732,1228.1027986589743,21511.520876799405
5.412706353176588,928.4168971006478,927.4820138493477,0.18373268583371713,0.0,0.21774640506094742,0.17968425444091554,0.04746065131426146,1228.0806203085722,21522.020850322322
5.422711355677839,928.51237530741,927.5793646082501,0.18383171976553556,0.0,0.21777592615177893,0.1796539015075417,0.04745947821794979,1228.0584839856135,21532.512577378675
5.432716358179089,928.607719195601,927.6765200845906,0.1839305637235344,0.0,0.217805380291636,0.17962361368932597,0.04745830789918421,1228.0363871528984,21542.996069364242
5.44272136068034,928.7029346073338,927.7734872549768,0.18402922917428952,0.0,0.21783477104328583,0.17959338742297087,0.047457140353257106,1228.0143273304484,21553.471337750918
5.452726363181591,928.7980272723369,927.8702729645956,0.1841277273277009,0.0,0.21786410188909178,0.1795632192255099,0.047455975575995644,1227.9923020937251,21563.93839408466
5.462731365682841,928.8930028109118,927.966883930264,0.1842260691471346,0.0,0.21789337623417543,0.17953310569114778,0.047454813563751565,1227.97030907144,21574.397249982947
5.4727363681840915,928.987866736248,928.0633267427552,0.18432426535781213,0.0,0.21792259740903067,0.17950304348864665,0.04745365431339377,1227.9483459437376,21584.847917132614
5.482741370685343,929.0826244566736,928.1596078690807,0.18442232645483161,0.0,0.21795176867202248,0.17947302935882847,0.04745249782230129,1227.9264104404683,21595.290407287775
5.492746373186593,929.1772812784311,928.2557336554223,0.18452026271208424,0.0,0.217980893212168,0.17944306011179487,0.04745134408835356,1227.9045003392541,21605.724732267387
5.5027513756878434,929.2718424074916,928.3517103289477,0.18461808418887946,0.0,0.21800997415119952,0.1794131326248651,0.04745019310992532,1227.8826134640617,21616.15090395353
5.512756378189095,929.3663129522378,928.4475440006881,0.1847158007382082,0.0,0.21803901454614247,0.179383243839999,0.04744904488587715,1227.8607476834131,21626.568934289102
5.522761380690345,929.460697925502,928.5432406676712,0.18481342201343484,0.0,0.21806801739140086,0.17935339076171267,0.047447899415549145,1227.838900908943,21636.978835275902
5.532766383191595,929.5550022466388,928.6388062151136,0.18491095747489214,0.0,0.21809698562081323,0.17932357045502273,0.0474467566987543,1227.8170710939694,21647.38061897282
5.542771385692847,929.649230743987,928.7342464191066,0.18500841639708726,0.0,0.21812592210990117,0.1792937800431996,0.0474456167357699,1227.7952562319394,21657.7742974937
5.552776388194097,929.7433881565015,928.8295669483239,0.18510580787403155,0.0,0.2181548296775299,0.1792640167061072,0.047444479527333036,1227.7734543552754,21668.159883005785
5.562781390695347,929.8374791361891,928.9247733667133,0.18520314082606917,0.0,0.21818371108803908,0.17923427767807296,0.04744334507463183,1227.7516635339007,21678.537387727683
5.572786393196598,929.9315082498941,929.0198711354282,0.18530042400520644,0.0,0.2182125690529051,0.17920456024622672,0.04744221337930011,1227.729881874086,21688.906823927737
5.582791395697849,930.025479981205,929.1148656149155,0.18539766600059332,0.0,0.21824140623245036,0.179174861748792,0.04744108444341116,1227.7081075172673,21699.268203922347
5.592796398199099,930.1193987326293,929.2097620673507,0.1854948752443505,0.0,0.21827022523766246,0.17914517957326762,0.04743995826947026,1227.686338638784,21709.621540074157
5.60280140070035,930.2132688270678,929.3045656582356,0.18559206001592407,0.0,0.21829902863155137,0.17911551115507138,0.04743883486041051,1227.6645734469394,21719.966844790622
5.612806403201601,930.3070945100089,929.3992814588863,0.1856892284477034,0.0,0.2183278189309039,0.17908585397578633,0.047437714219585043,1227.6428101817864,21730.304130522265
5.622811405702851,930.4008799511043,929.4939144481804,0.18578638852936388,0.0,0.21835659860763804,0.17905620556180715,0.04743659635076229,1227.6210471141885,21740.633409761234
5.632816408204102,930.4946292459068,929.5884695145178,0.1858835481123729,0.0,0.21838537009020942,0.1790265634829345,0.04743548125812039,1227.5992825448461,21750.954695039774
5.642821410705353,930.5883464177939,929.6829514580178,0.18598071491477744,0.0,0.2184141357651064,0.17899692535088063,0.04743436894624039,1227.5775148032633,21761.267998928703
5.652826413206603,930.6820354192959,929.7773649920027,0.1860778965247537,0.0,0.21844289797795668,0.17896728881816332,0.04743325942010279,1227.555742246979,21771.57333403612
5.662831415707854,930.7757001340731,929.8717147452836,0.18617510040529558,0.0,0.2184716590349925,0.1789376515766416,0.047432152685080345,1227.5339632605542,21781.870713005836
5.672836418209104,930.8693443782935,929.9660052637253,0.18627233389769593,0.0,0.21850042120413665,0.1789080113564303,0.047431048746934004,1227.5121762548208,21792.160148516177
5.682841420710355,930.9629719022264,930.0602410120828,0.18636960422535714,0.0,0.21852918671619226,0.17887836592471082,0.04742994761180785,1227.4903796660574,21802.44165327857
5.692846423211606,931.0565863919312,930.1544263759661,0.18646691849768263,0.0,0.2185579577660589,0.17884871308451597,0.04742884928622306,1227.4685719551478,21812.715240036243
5.702851425712856,931.150191470461,930.2485656632159,0.18656428371303438,0.0,0.2185867365136549,0.17881905067380788,0.04742775377707495,1227.446751606943,21822.980921563078
5.712856428214107,931.2437906996313,930.342663105985,0.18666170676262447,0.0,0.21861552508513404,0.1787893765642623,0.04742666109162628,1227.42491712942,21833.238710662245
5.722861430715358,931.3373875812332,930.4367228621408,0.18675919443335598,0.0,0.2186443255737721,0.17875968866038247,0.04742557123750404,1227.4030670530678,21843.48862016511
5.732866433216608,931.430985558484,930.5307490169683,0.18685675341103228,0.0,0.21867314004096947,0.178729984898497,0.04742448422269462,1227.3811999301936,21853.730662930044
5.742871435717859,931.5245880175083,930.6247455849218,0.18695439028354374,0.0,0.21870197051724752,0.17870026324576438,0.04742340005553868,1227.359314334235,21863.96485184125
5.7528764382191095,931.6181982884293,930.7187165108942,0.18705211154334064,0.0,0.21873081900301977,0.17867052169940204,0.047422318744728346,1227.337408859225,21874.191199807763
5.76288144072036,931.7118196469479,930.8126656721021,0.1871499235906802,0.0,0.2187596874696081,0.17864075828567097,0.04742124029930141,1227.315482119092,21884.40971976225
5.77288644322161,931.8054553154084,930.9065968793385,0.187247832735966,0.0,0.2187885778599724,0.1786109710591464,0.04742016472863849,1227.2935327471507,21894.620424660057
5.7828914457228615,931.8991084641186,931.0005138785467,0.18734584520244935,0.0,0.2188174920895556,0.1785811581018734,0.04741909204245857,1227.271559395523,21904.823327478163
5.792896448224112,931.9927822126466,931.0944203523709,0.18744396712886208,0.0,0.21884643204710655,0.17855131752254452,0.047418022250814665,1227.2495607345654,21915.01844121413
5.802901450725362,932.0864796308085,931.1883199213273,0.1875422045714945,0.0,0.21887539959532862,0.17852144745585163,0.04741695536409132,1227.227535452423,21925.205778885273
5.8129064532266135,932.1802037400761,931.2822161455025,0.18764056350692088,0.0,0.21890439657173302,0.17849154606163317,0.047415891392999315,1227.2054822544378,21935.38535352755
5.822911455727864,932.2739575145135,931.3761125256698,0.1877390498339164,0.0,0.2189334247892369,0.17846161152427645,0.04741483034857333,1227.1833998627374,21945.55717819477
5.832916458229114,932.3677438819739,931.4700125047345,0.18783766937575908,0.0,0.21896248603688345,0.17843164205199794,0.04741377224216793,1227.1612870157346,21955.721265957647
5.8429214607303654,932.4615657252341,931.5639194691068,0.18793642788240925,0.0,0.21899158208052383,0.17840163587616228,0.04741271708545376,1227.1391424676597,21965.877629902934
5.852926463231616,932.5554258828913,931.6578367497752,0.18803533103226885,0.0,0.21902071466336598,0.178371591250733,0.047411664890415345,1227.1169649881779,21976.026283132604
5.862931465732866,932.64932715061,931.751767623831,0.188134384434461,0.0,0.21904988550668905,0.17834150645155955,0.04741061566934631,1227.094753361898,21986.167238762955
5.8729364682341165,932.7432722819483,931.8457153154617,0.18823359363042727,0.0,0.2190790963103416,0.1783113797758787,0.04740956943484757,1227.0725063880273,21996.3005099239
5.882941470735368,932.8372639894436,931.9396829972766,0.18833296409590894,0.0,0.2191083487533618,0.17828120954169516,0.047408526199823546,1227.0502228799426,22006.426109758122
5.892946473236618,932.9313049455985,932.0336737915108,0.18843250124271402,0.0,0.2191376444945305,0.17825099408722903,0.0474074859774789,1227.0279016648108,22016.544051420322
5.9029514757378685,933.0253977836976,932.1276907710147,0.18853221042025992,0.0,0.21916698517285255,0.1782207317704344,0.04740644878131668,1227.005541583252,22026.654348076507
5.91295647823912,933.1195450989112,932.2217369606145,0.18863209691747185,0.0,0.21919637240815215,0.1781904209684049,0.047405414625133965,1226.9831414889325,22036.757012903217
5.92296148074037,933.213749449023,932.3158153379951,0.18873216596411838,0.0,0.2192258078014893,0.1781600600769572,0.047404383523020434,1226.9607002482746,22046.85205908688
5.9329664832416205,933.3080133554118,932.4099288349107,0.1888324227325106,0.0,0.21925529293569215,0.1781296475100993,0.0474033554893549,1226.9382167400915,22056.939499823085
5.942971485742872,933.4023393039132,932.504080338242,0.18893287233898942,0.0,0.2192848293758224,0.1780991816995653,0.04740233053880254,1226.915689855263,22067.01934831594
5.952976488244122,933.4967297455527,932.5982726909003,0.18903351984519529,0.0,0.21931441866957174,0.17806866109441952,0.047401308686313225,1226.8931184964626,22077.09161777742
5.962981490745372,933.591187097531,932.692508693041,0.1891343702597411,0.0,0.2193440623477865,0.178038084160532,0.04740028994711768,1226.8705015777978,22087.156321426723
5.972986493246623,933.6857137438618,932.7867911028502,0.1892354285392922,0.0,0.21937376192480432,0.17800744938024204,0.04739927433672633,1226.8478380245738,22097.21347248969
5.982991495747874,933.7803120362572,932.8811226376422,0.1893366995900408,0.0,0.2194035188989165,0.17797675525189657,0.04739826187092611,1226.8251267729772,22107.263084198163
5.992996498249124,933.874984294878,932.975505974788,0.18943818826893877,0.0,0.2194333347527536,0.1779460002894646,0.04739725256577815,1226.8023667698085,22117.305169789444
6.003001500750375,933.9697328090024,933.0699437525421,0.1895398993848153,0.0,0.21946321095363447,0.17791518302218828,0.04739624643761631,1226.7795569722418,22127.33974250571
6.013006503251626,934.0645598378902,933.1644385711196,0.1896418376997704,0.0,0.21949314895400365,0.1778843019941462,0.04739524350304371,1226.7566963475217,22137.366815593465
6.023011505752876,934.1594676113501,933.258992993395,0.1897440079300996,0.0,0.21952315019171967,0.17785335576396522,0.04739424377893193,1226.7337838727663,22147.386402303015
6.033016508254127,934.2544583305366,933.3536095458993,0.18984641474756722,0.0,0.21955321609045397,0.1778223429044217,0.04739324728241794,1226.7108185346897,22157.398515887944
6.043021510755377,934.3495341686029,933.4482907196308,0.18994906278044169,0.0,0.2195833480600154,0.17779126200211745,0.047392254030902387,1226.6877993293797,22167.403169604593
6.053026513256628,934.4446972713081,933.5430389708117,0.19005195661446758,0.0,0.21961354749665332,0.17776011165717667,0.04739126404204809,1226.6647252620874,22177.400376711597
6.063031515757879,934.5399497577785,933.6378567218401,0.19015510079404482,0.0,0.21964381578342823,0.17772889048287582,0.047390277333777035,1226.6415953469732,22187.390150469386
6.073036518259129,934.63529372101,933.7327463619143,0.19025849982302528,0.0,0.21967415429045964,0.17769759710539584,0.047389293924269826,1226.6184086069327,22197.37250413972
6.08304152076038,934.7307312285833,933.8277102479325,0.1903621581657957,0.0,0.21970456437526614,0.17766623016348232,0.04738831383196285,1226.5951640733647,22207.347450985253
6.093046523261631,934.8262643232348,933.9227507052026,0.19046608024817965,0.0,0.21973504738304744,0.17763478830816384,0.047387337075546834,1226.5718607859772,22217.31500426906
6.103051525762881,934.9218950234077,934.0178700281328,0.19057027045827238,0.0,0.21976560464694506,0.1776032702024912,0.0473863636739656,1226.5484977926033,22227.275177254265
6.113056528264132,935.0176253239194,934.113070481071,0.19067473314744648,0.0,0.21979623748835841,0.17757167452122186,0.04738539364641334,1226.5250741489874,22237.22798320356
6.123061530765383,935.1134571964074,934.2083542988632,0.1907794726310222,0.0,0.21982694721715335,0.17753999995061145,0.047384427012334245,1226.50158891864,22247.17343537886
6.133066533266633,935.209392589976,934.3037236876636,0.1908844931892485,0.0,0.2198577351319702,0.177508245188106,0.04738346379141994,1226.4780411726233,22257.11154704086
6.143071535767883,935.3054334316909,934.3991808255577,0.19098979906804325,0.0,0.21988860252045517,0.17747640894211072,0.047382504003608314,1226.454429989394,22267.0423314487
6.153076538269135,935.4015816270763,934.4947278631863,0.19109539447971333,0.0,0.21991955065948526,0.17744448993176506,0.04738154766908241,1226.4307544546473,22276.96580185956
6.163081540770385,935.4978390607063,934.5903669244909,0.19120128360384,0.0,0.2199505808154467,0.17741248688666497,0.047380594808267985,1226.407013661124,22286.881971528303
6.173086543271635,935.5942075966008,934.6861001072101,0.19130747058786235,0.0,0.21998169424441602,0.17738039854668136,0.0473796454418334,1226.383206708486,22296.79085370715
6.1830915457728866,935.6906890788039,934.7819294836092,0.19141395954791574,0.0,0.22001289219242384,0.17734822366169709,0.04737869959068709,1226.3593327031354,22306.692461645307
6.193096548274137,935.787285331814,934.8778571010223,0.19152075456945938,0.0,0.22004417589565053,0.17731596099141092,0.047377757275976866,1226.3353907580765,22316.586808588672
6.203101550775387,935.8839981610408,934.9738849824255,0.19162785970794854,0.0,0.22007554658063674,0.17728360930512757,0.04737681851908871,1226.3113799927748,22326.473907779473
6.2131065532766385,935.9808293533206,935.0700151270897,0.19173527898958076,0.0,0.22010700546451767,0.1772511673815236,0.047375883341644776,1226.2872995329917,22336.353772455986
6.223111555777889,936.0777806772676,935.1662495110245,0.19184301641176776,0.0,0.22013855375516947,0.17721863400850077,0.047374951765503326,1226.2631485106835,22346.226415852227
6.233116558279139,936.1748538837965,935.2625900876349,0.19195107594392533,0.0,0.22017019265145774,0.17718600798293785,0.047374023812756405,1226.2389260638336,22356.091851197645
6.24312156078039,936.2720507064995,935.359038788197,0.19205946152800804,0.0,0.22020192334340433,0.17715328811052436,0.04737309950572941,1226.2146313363328,22365.95009171685
6.253126563281641,936.3693728620556,935.455597522376,0.1921681770790721,0.0,0.22023374701236317,0.17712047320558424,0.04737217886697995,1226.1902634778605,22375.801150629344
6.263131565782891,936.4668220506827,935.5522681788005,0.1922772264859239,0.0,0.2202656648312242,0.1770875620908724,0.04737126191929609,1226.1658216437443,22385.64504114923
6.273136568284142,936.564399956462,935.6490526254645,0.19238661361159462,0.0,0.22029767796456065,0.17705455359742767,0.04737034868569644,1226.1413049948562,22395.48177648496
6.283141570785393,936.6621082477974,935.7459527103139,0.19249634229398357,0.0,0.22032978756883156,0.17702144656437005,0.04736943918942795,1226.1167126974744,22405.311369839103
6.293146573286643,936.7599485777444,935.8429702616609,0.19260641634631345,0.0,0.2203619947925235,0.17698823983875941,0.04736853345396575,1226.092043923185,22415.133834408065
6.3031515757878935,936.8579225843866,935.9401070886578,0.19271683955767058,0.0,0.2203943007763195,0.1769549322754265,0.047367631503011993,1226.067297848766,22424.949183381872
6.313156578289145,936.9560318912331,936.0373649818016,0.19282761569356374,0.0,0.2204267066532748,0.17692152273679718,0.04736673336049442,1226.0424736560637,22434.757429943947
6.323161580790395,937.054278107507,936.1347457132949,0.19293874849633383,0.0,0.2204592135489438,0.17688801009276617,0.047365839050566495,1226.0175705319084,22444.55858727086
6.3331665832916455,937.1526628285576,936.2322510375708,0.19305024168572982,0.0,0.22049182258156116,0.1768543932205151,0.04736494859760539,1225.9925876679863,22454.35266853215
6.343171585792896,937.2511876361496,936.3298826916565,0.1931620989593086,0.0,0.22052453486216653,0.17682067100438875,0.04736406202621192,1225.967524260756,22464.13968689006
6.353176588294147,937.3498540988058,936.4276423956053,0.19327432399292607,0.0,0.22055735149475786,0.17678684233574127,0.04736317936120957,1225.942379511339,22473.919655499394
6.3631815907953975,937.4486637721552,936.5255318529373,0.19338692044122469,0.0,0.22059027357644484,0.17675290611278316,0.047362300627643183,1225.9171526254172,22483.692587507277
6.373186593296648,937.5476181991927,936.6235527509675,0.1934998919379889,0.0,0.22062330219755857,0.1767188612404713,0.04736142585077919,1225.8918428131565,22493.458496052986
6.383191595797899,937.6467189106505,936.7217067612735,0.19361324209668462,0.0,0.22065643844182173,0.17668470663033928,0.04736055505610373,1225.8664492890866,22503.217394267755
6.393196598299149,937.7459674252511,936.8199955400163,0.19372697451079443,0.0,0.22068968338645245,0.17665044120039322,0.0473596882693228,1225.8409712720331,22512.969295274597
6.4032016008004,937.8453652500194,936.9184207283326,0.1938410927542747,0.0,0.2207230381023074,0.17661606387496911,0.0473588255163612,1225.8154079850144,22522.714212188133
6.413206603301651,937.9449138805877,937.0169839527214,0.19395560038197182,0.0,0.22075650365401248,0.17658157358460191,0.047357966823361575,1225.7897586551555,22532.45215811444
6.423211605802901,938.0446148014356,937.1156868253426,0.19407050092997455,0.0,0.22079008110007176,0.17654696926591665,0.04735711221668459,1225.7640225136095,22542.183146150855
6.433216608304152,938.1444694862171,937.2145309444335,0.19418579791607093,0.0,0.22082377149301172,0.1765122498614845,0.04735626172290717,1225.7381987954595,22551.90718938585
6.443221610805402,938.2444793979855,937.3135178945909,0.19430149484005096,0.0,0.2208575758794746,0.1764774143197292,0.047355415368822894,1225.7122867396533,22561.624300898857
6.453226613306653,938.3446459894803,937.4126492471299,0.19441759518413654,0.0,0.22089149530035343,0.17644246159479224,0.047354573181440866,1225.686285588911,22571.334493760143
6.463231615807904,938.4449707033945,937.5119265604236,0.19453410241335797,0.0,0.22092553079090962,0.17640739064641517,0.04735373518798499,1225.660194589642,22581.03778103066
6.473236618309154,938.5454549725902,937.611351380171,0.19465101997584533,0.0,0.2209596833808635,0.1763722004398494,0.047352901415894134,1225.6340129918833,22590.7341757619
6.483241620810405,938.646100220397,937.710925239774,0.19476835130328557,0.0,0.2209939540945378,0.17633688994571234,0.04735207189282059,1225.607740049201,22600.423690995776
6.493246623311656,938.7469078608077,937.8106496605827,0.19488609981116548,0.0,0.22102834395093285,0.1763014581399124,0.04735124664663044,1225.581375018638,22610.10633976449
6.503251625812906,938.8478792987412,937.9105261522252,0.19500426889918168,0.0,0.22106285396385503,0.17626590400352088,0.04735042570540261,1225.5549171606217,22619.7821350904
6.513256628314157,938.9490159302788,938.010556212903,0.19512286195157091,0.0,0.22109748514202002,0.1762302265226683,0.04734960909742814,1225.5283657388989,22629.45108998595
6.523261630815408,939.0503191428618,938.1107413296395,0.1952418823373941,0.0,0.22113223848914054,0.17619442468845664,0.047348796851210545,1225.5017200204684,22639.113217453454
6.533266633316658,939.1517903155572,938.2110829786124,0.1953613334109375,0.0,0.22116711500405317,0.1761584974968332,0.047347988995464246,1225.474979275499,22648.768530485122
6.543271635817908,939.2534308192339,938.3115826253745,0.19548121851194356,0.0,0.22120211568078868,0.17612244394851956,0.047347185559115115,1225.4481427772757,22658.417042062843
6.55327663831916,939.3552420168044,938.4122417251538,0.19560154096599883,0.0,0.2212372415086942,0.1760862630488896,0.047346386571299456,1225.4212098021187,22668.05876515813
6.56328164082041,939.4572252634293,938.5130617231118,0.19572230408481162,0.0,0.22127249347251976,0.17604995380788346,0.0473455920613636,1225.3941796293218,22677.69371273203
6.57328664332166,939.5593819067052,938.6140440545737,0.19584351116650722,0.0,0.22130787255250955,0.17601351523991554,0.047344802058864065,1225.3670515410888,22687.321897735
6.583291645822912,939.6617132868975,938.7151901453221,0.19596516549597084,0.0,0.22134337972451018,0.1759769463637668,0.04734401659356623,1225.3398248224607,22696.94333310687
6.593296648324162,939.7642207371033,938.8165014117981,0.19608727034508364,0.0,0.22137901596004292,0.17594024620251217,0.04734323569544488,1225.3124987612623,22706.558031776676
6.603301650825412,939.8669055834686,938.9179792613704,0.1962098289730619,0.0,0.22141478222641048,0.17590341378341406,0.0473424593946833,1225.2850726480308,22716.16600666266
6.613306653326664,939.9697691453739,939.0196250925678,0.19633284462673614,0.0,0.2214506794867839,0.17586644813783542,0.0473416877216729,1225.2575457759542,22725.76727067215
6.623311655827914,940.072812735605,939.1214402952875,0.19645632054081263,0.0,0.22148670870028317,0.17582934830115873,0.0473409207070134,1225.2299174408163,22735.36183670147
6.633316658329164,940.1760376605621,939.2234262510582,0.19658025993819317,0.0,0.22152287082207828,0.1757921133126855,0.04734015838151164,1225.2021869409252,22744.949717635915
6.643321660830415,940.2794452204103,939.3255843332223,0.19670466603020553,0.0,0.2215591668034598,0.17575474221556525,0.047339400776182185,1225.1743535770659,22754.53092634963
6.653326663331666,940.3830367092752,939.4279159071806,0.1968295420169179,0.0,0.22159559759193762,0.1757172340566971,0.04733864792224634,1225.1464166524304,22764.10547570559
6.663331665832916,940.4868134154108,939.5304223305972,0.19695489108738864,0.0,0.22163216413131853,0.1756795878866518,0.047337899851132,1225.1183754725657,22773.673378555504
6.673336668334167,940.5907766213569,939.6331049535926,0.19708071641992606,0.0,0.22166886736178684,0.1756418027595914,0.047337156594473795,1225.0902293453148,22783.234647739766
6.683341670835418,940.6949276041266,939.7359651189795,0.19720702118237624,0.0,0.2217057082199948,0.17560387773317865,0.047336418184111946,1225.0619775807568,22792.789296087416
6.693346673336668,940.7992676353474,939.8390041624272,0.19733380853236188,0.0,0.22174268763913588,0.17556581186850378,0.04733568465209298,1225.0336194911547,22802.337336416047
6.703351675837919,940.9037979814366,939.9422234126848,0.197461081617553,0.0,0.22177980654902996,0.17552760422999916,0.04733495603066871,1225.005154390896,22811.8787815318
6.71335667833917,941.0085199037547,940.0456241917647,0.19758884357592674,0.0,0.22181706587620398,0.17548925388535877,0.04733423235229622,1224.976581596438,22821.413644229287
6.72336168084042,941.1134346587493,940.1492078151192,0.19771709753597946,0.0,0.22185446654395746,0.17545075990547254,0.04733351364963794,1224.9479004262596,22830.941937291544
6.7333666833416705,941.2185434981295,940.2529755918544,0.19784584661705143,0.0,0.22189200947246446,0.1754121213643244,0.04733279995556065,1224.9191102007937,22840.463673490016
6.743371685842921,941.3238476689893,940.3569288248779,0.19797509392949736,0.0,0.22192969557882558,0.17537333733894023,0.04733209130313622,1224.8902102423888,22849.97886558448
6.753376688344172,941.429348413974,940.4610688111036,0.19810484257498231,0.0,0.22196752577716095,0.17533440690929486,0.04733138772564049,1224.8611998752447,22859.48752632303
6.7633816908454225,941.5350469714157,940.5653968416163,0.19823509564670497,0.0,0.22200550097867924,0.17529532915824297,0.0473306892565535,1224.832078425365,22868.98966844206
6.773386693346673,941.6409445754721,940.6699142018365,0.19836585622963623,0.0,0.22204362209175163,0.17525610317144513,0.04732999592955949,1224.8028452205053,22878.485304666177
6.783391695847924,941.7470424562778,940.7746221717088,0.19849712740076525,0.0,0.22208189002198922,0.17521672803729033,0.0473293077785459,1224.77349959012,22887.97444770823
6.7933966983491745,941.8533418400657,940.8795220258424,0.19862891222933032,0.0,0.22212030567231347,0.1751772028468254,0.047328624837604215,1224.744040865312,22897.457110269246
6.803401700850425,941.9598439493153,940.9846150336956,0.19876121377705291,0.0,0.22215886994303025,0.17513752669368096,0.04732794714102885,1224.714468378782,22906.933305038416
6.813406703351676,942.0665500028797,941.0899024597242,0.19889403509837722,0.0,0.22219758373190365,0.1750976986739978,0.04732727472331744,1224.6847814647774,22916.403044693077
6.8234117058529264,942.173461216113,941.1953855635359,0.19902737924068542,0.0,0.22223644793422273,0.17505771788635963,0.04732660761917076,1224.654979459044,22925.866341898683
6.833416708354177,942.28057880101,941.3010656000599,0.1991612492445497,0.0,0.22227546344288068,0.17501758343171422,0.04732594586349188,1224.6250616987747,22935.323209308783
6.843421710855427,942.3879039663179,941.4069438196761,0.19929564814392864,0.0,0.22231463114843455,0.17497729441331342,0.04732528949138698,1224.595027522563,22944.773659565024
