z,T,t,fs,fl,x,y,w,rhob,p
0.0,633.2252217759876,505.0,0.0,0.0,0.16463076518712821,0.23280135942993258,0.047713978707117556,1268.0,14330.0
0.010005002501250625,641.3248724199701,517.3982790953233,2.7295824920175282e-05,0.0,0.1646392385313488,0.23279288608553134,0.047713978706832076,1267.9940975506627,14336.206677668839
0.02001000500250125,649.1355385930647,529.3368638105034,5.851835899922321e-05,0.0,0.1646489308294315,0.23278319378705306,0.04771397870620685,1267.9873459895502,14342.534670865984
0.030015007503751877,656.6700070486418,540.8373729819444,9.383593637118568e-05,0.0,0.16465989433645192,0.23277223027921828,0.04771397870491997,1267.9797089159135,14348.98001390287
0.0400200100050025,663.9403207138548,551.9200594438255,0.00013339300329865252,0.0,0.16467217389185315,0.23275995072223116,0.04771397870241354,1267.971155094386,14355.538856240059
0.05002501250625312,670.9578352704661,562.6039244962634,0.0001773112731939823,0.0,0.16468580727788293,0.23274631733326107,0.04771397869776677,1267.9616582051544,14362.207460108139
0.060030015007503754,677.7332703971618,572.90682031234,0.00022569109450692532,0.0,0.1647008256440724,0.23273129896185624,0.0477139786895246,1267.951196548072,14368.982198001135
0.07003501750875438,684.2767562656493,582.8455418080359,0.0002786129432278581,0.0,0.1647172539703536,0.23271487062668547,0.04771397867547569,1267.939752719797,14375.85955008041
0.080040020010005,690.5978758086044,592.4359092753479,0.0003361389725441767,0.0,0.1647351115478704,0.23269701303455154,0.047713978652375026,1267.9273132785443,14382.836101520192
0.09004502251125562,696.7057032134909,601.6928428924604,0.0003983145693002756,0.0,0.16475441246185096,0.23267771209730678,0.047713978615608735,1267.913868407331,14389.908539819815
0.10005002501250625,702.6088390409092,610.6304300688407,0.0004651698807002083,0.0,0.16477516606519246,0.23265695845801995,0.0477139785588015,1267.8994115836283,14397.073652103078
0.11005502751375687,708.3154423182193,619.2619864519461,0.000536721285603518,0.0,0.16479737743479836,0.2326347470343562,0.047713978473369556,1267.8839392609623,14404.328322421234
0.12006003001500751,713.8332599176214,627.6001113114875,0.0006129727932601365,0.0,0.16482104780534862,0.2326110765844932,0.0477139783480253,1267.8674505661804,14411.669529072924
0.13006503251625812,719.1696534917908,635.6567379233007,0.0006939173588419278,0.0,0.16484617497720624,0.23258594929887605,0.047713978168242105,1267.8499470146864,14419.094341951624
0.14007003501750875,724.3316242087358,643.4431794949766,0.0007795381100395931,0.0,0.16487275369669158,0.23255937041958608,0.04771397791569007,1267.8314322448923,14426.599919929113
0.15007503751875936,729.3258355001577,650.9701711071523,0.0008698094826318055,0.0,0.16490077600808414,0.23253134788797136,0.04771397756765546,1267.8119117723445,14434.18350828166
0.16008004002001,734.158634013657,658.2479080858824,0.000964698265571776,0.0,0.16493023157753509,0.2325018920203656,0.04771397709645763,1267.7913927634131,14441.842436164054
0.17008504252126064,738.8360689381708,665.2860811712047,0.001064164557998316,0.0,0.16496110798964875,0.23247101521114502,0.04771397646887799,1267.7698838280364,14449.574114135507
0.18009004502251125,743.3639098536646,672.0939088036416,0.0011681626418440963,0.0,0.16499339101788746,0.23243873166197915,0.04771397564561535,1267.747394830728,14457.376031740321
0.19009504752376188,747.7476632399454,678.6801668128328,0.0012766417745266939,0.0,0.1650270648702031,0.2324050571358803,0.04771397458078205,1267.7239367188881,14465.24575514552
0.2001000500250125,751.9925877652615,685.0532157599417,0.0013895469066814562,0.0,0.16506211241144741,0.23237000873450814,0.04771397322145354,1267.6995213673572,14473.180924836792
0.21010505252626313,756.1037084628189,691.2210261571342,0.00150681933011775,0.0,0.16509851536417908,0.23233360469711933,0.047713971507283515,1267.6741614380855,14481.179253373703
0.22011005502751374,760.0858298922751,697.1912017627229,0.0016283972612204341,0.0,0.16513625448949784,0.2322958642195373,0.0477139693701942,1267.647870253815,14489.238523204502
0.23011505752876438,763.9435483734787,702.9710011289585,0.001754216364929295,0.0,0.1651753097495052,0.23225680729154838,0.04771396673415025,1267.6206616846441,14497.356584540626
0.24012006003001501,767.6812633709625,708.5673575603911,0.001884210224250227,0.0,0.16521566045293634,0.2322164545511836,0.04771396351502199,1267.592550046428,14505.531353290573
0.25012506253126565,771.3031880998047,713.9868976237727,0.002018310760015379,0.0,0.16525728538542878,0.23217482715442223,0.04771395962054193,1267.5635500099863,14513.76080905275
0.26013006503251623,774.8133594179776,719.2359583380684,0.0021564486053457918,0.0,0.16530016292581393,0.23213194665893322,0.04771395495035644,1267.5336765201566,14522.042993166171
0.27013506753376687,778.2156470621626,724.320603156847,0.0022985534389569403,0.0,0.1653442711497149,0.2320878349205697,0.04771394939617213,1267.5029447238026,14530.376006818362
0.2801400700350175,781.513762279391,729.2466368452925,0.002444554281165166,0.0,0.1653895879216474,0.23204251400141948,0.0477139428419949,1267.4713699059337,14538.758009209565
0.29014507253626814,784.7112659023466,734.0196193445039,0.0025943797561555123,0.0,0.16543609097672451,0.23199600608830764,0.047713935164457405,1267.438967433174,14547.187215771959
0.3001500750375187,787.8115759115543,738.6448787063482,0.0027479583237810957,0.0,0.16548375799297638,0.23194833342073648,0.047713926233229835,1267.405752703864,14555.661896442734
0.31015507753876936,790.8179745237752,743.1275231741434,0.0029052184838882305,0.0,0.16553256665520769,0.2318995182273362,0.04771391591150677,1267.3717411041425,14564.180373989773
0.32016008004002,793.7336148424206,747.4724524773244,0.003066088955900488,0.0,0.165582494711235,0.23184958266997902,0.04771390405656244,1267.336947969419,14572.741022388598
0.33016508254127064,796.5615271026479,751.6843684018909,0.0032304988361501453,0.0,0.16563352002126788,0.23179854879478698,0.04771389052036556,1267.3013885506898,14581.342265249299
0.3401700850425213,799.3046245409595,755.7677846927614,0.0033983777352177558,0.0,0.1656856206011281,0.23174643848933335,0.04771387515024426,1267.2650779852038,14589.982574292078
0.35017508754377186,801.9657089165748,759.7270363390671,0.0035696558973299006,0.0,0.16573877465993445,0.23169327344540436,0.04771385778959143,1267.2280312710316,14598.660467870115
0.3601800900450225,804.5474757095303,763.5662882888656,0.0037442643036712606,0.0,0.1657929606328204,0.23163907512674703,0.04771383827860058,1267.1902632451288,14607.374509538331
0.37018509254627313,807.0525190183844,767.289543635655,0.003922134761289278,0.0,0.16584815720919735,0.23158386474128465,0.04771381645502227,1267.1517885645255,14616.123306666832
0.38019009504752377,809.4833361785079,770.9006513153901,0.004103199979107184,0.0,0.16590434335702497,0.23152766321733165,0.04771379215493144,1267.1126216903117,14624.905509097598
0.39019509754877435,811.8423321202362,774.403313349382,0.0042873936324129966,0.0,0.1659614983435057,0.23147049118338622,0.04771376521349663,1267.072776874113,14633.719807843221
0.400200100050025,814.1318234846061,777.801091665471,0.0044746504170573645,0.0,0.1660196017525782,0.23141236895111886,0.04771373546574202,1267.032268146789,14642.564933826357
0.4102051025512756,816.3540425129861,781.0974145271598,0.00466490609447091,0.0,0.16607863349954696,0.23135331650121538,0.04771370274729454,1266.9911093091089,14651.439656658682
0.42021010505252626,818.5111407256344,784.2955825979485,0.004858097528500843,0.0,0.16613857384315306,0.23129335347176488,0.04771366689510852,1266.949313924184,14660.342783458067
0.4302151075537769,820.6051924030451,787.3987746658958,0.005054162714966443,0.0,0.16619940339535844,0.23123249914891553,0.0477136277481615,1266.9068953114574,14669.273157702864
0.4402201100550275,822.6381978828815,790.4100530514276,0.005253040804742252,0.0,0.16626110312909118,0.23117077245954795,0.0477135851481154,1266.863866542076,14678.229658122067
0.4502251125562781,824.6120866843237,793.332368719581,0.005454672121096137,0.0,0.16632365438417152,0.23110819196574228,0.047713538939938384,1266.8202404354818,14687.211197620249
0.46023011505752875,826.5287204707712,796.1685661162243,0.005658998171935327,0.0,0.16638703887161974,0.23104477586083655,0.04771348897248328,1266.7760295570822,14696.216722236146
0.4702351175587794,828.3898958610217,798.9213877462557,0.005865961657547272,0.0,0.16645123867652423,0.23098054196689524,0.0477134350990197,1266.731246216866,14705.245210133842
0.48024012006003003,830.1973470981999,801.5934785102652,0.006075506474364197,0.0,0.1665162362596325,0.23091550773342426,0.047713377177717425,1266.6859024688572,14714.295670625566
0.4902451225612806,831.952748585426,804.1873898154881,0.0062875777152186264,0.0,0.1665820144578083,0.23084969023718763,0.04771331507207974,1266.6400101112954,14723.367143224914
0.5002501250625313,833.6577172962205,806.70558347516,0.006502121666514345,0.0,0.16664855648348706,0.2307831061829944,0.0477132486513257,1266.5935806874586,14732.458696729609
0.5102551275637819,835.3138150669431,809.1504354091417,0.006719085802697453,0.0,0.1667158459232477,0.2307157719053363,0.047713177790721636,1266.5466254870396,14741.569428332905
0.5202601300650325,836.922550778364,811.5242391582344,0.006938418778365993,0.0,0.1667838667356076,0.23064770337077056,0.04771310237186203,1266.4991555480074,14750.69846276266
0.5302651325662832,838.4853824328687,813.829209223534,0.007160070418323183,0.0,0.16685260324813536,0.23057891618095386,0.0477130222829011,1266.4511816588836,14759.844951447243
0.5402701350675337,840.0037191333387,816.0674842413702,0.007383991705847539,0.0,0.16692204015396817,0.23050942557624085,0.047712937418736535,1266.4027143613812,14769.0080717073
0.5502751375687843,841.4789229693449,818.2411300036158,0.0076101347694245165,0.0,0.1669921625078112,0.2304392464397723,0.04771284768114726,1266.3537639533495,14778.187025972662
0.560280140070035,842.9123108159104,820.3521423324876,0.007838452868158397,0.0,0.16706295572148894,0.23036839330198286,0.04771275297888735,1266.3043404919777,14787.381041023498
0.5702851425712856,844.3051560497424,822.4024498183077,0.008068900376060048,0.0,0.16713440555911152,0.23029688034546875,0.04771265322773895,1266.2544537972249,14796.589367254994
0.5802901450725363,845.658690187519,824.3939164281396,0.00830143276538531,0.0,0.16720649813191216,0.23022472141015868,0.047712548350526435,1266.2041134554281,14805.811277964738
0.5902951475737869,846.9741044505054,826.328343992655,0.008536006589179931,0.0,0.1672792198928074,0.23015192999874043,0.04771243827709499,1266.1533288230667,14815.046068662157
0.6003001500750375,848.2525512595078,828.2074745781114,0.008772579463170288,0.0,0.16735255763072515,0.23007851928229828,0.047712322944256286,1266.1021090306474,14824.29305639921
0.6103051525762881,849.4951456639104,830.0329927498545,0.009011110047123766,0.0,0.16742649846474253,0.23000450210612222,0.047712202295704394,1266.0504629866896,14833.551579121748
0.6203101550775387,850.7029667083009,831.8065277333427,0.009251558025789267,0.0,0.16750102983806886,0.2299298909956543,0.04771207628190467,1265.9983993817855,14842.820995040785
0.6303151575787894,851.8770587399756,833.5296554782967,0.009493884089515929,0.0,0.1675761395119088,0.2298546981625404,0.04771194485995869,1265.9459266927174,14852.100682023147
0.64032016008004,853.0184326604071,835.2039006312227,0.009738049914637224,0.0,0.16765181555923347,0.22977893551075987,0.047711807993448006,1265.8930531866126,14861.390037000758
0.6503251625812906,854.1280671235645,836.8307384212164,0.009984018143697706,0.0,0.16772804635848698,0.22970261464280894,0.047711665652259476,1265.8397869251248,14870.688475398085
0.6603301650825413,855.2069096838044,838.4115964636466,0.01023175236559079,0.0,0.16780482058725135,0.22962574686591486,0.04771151781239466,1265.7861357686236,14879.995430577099
0.6703351675837919,856.2558778958844,839.947856486033,0.010481217095667992,0.0,0.16788212721589105,0.2295483431982627,0.04771136445576612,1265.7321073803844,14889.31035329918
0.6803401700850426,857.2758603694942,841.4408559801598,0.010732377755872912,0.0,0.1679599555011958,0.22947041437521637,0.04771120556998247,1265.6777092307661,14898.632711203507
0.6903451725862931,858.2677177805652,842.8918897842218,0.010985200654946792,0.0,0.16803829498003786,0.22939197085552004,0.047711041148124904,1265.6229486013685,14907.961988301322
0.7003501750875437,859.2322838414801,844.3022115985707,0.011239652968769033,0.0,0.16811713546306545,0.229313022827459,0.04771087118851677,1265.567832589159,14917.297684485613
0.7103551775887944,860.1703662347518,845.673035442046,0.011495702741891592,0.0,0.16819646703497107,0.22923358020844237,0.047710695694488436,1265.5123681060081,14926.63931505576
0.720360180090045,861.0827496177426,847.0055400353267,0.011753335880750197,0.0,0.1682762853294402,0.22915364736990287,0.04771051467413733,1265.4565582039493,14935.986410261557
0.7303651825912957,861.9704330580348,848.3012051522405,0.012014469250486196,0.0,0.16835718540659458,0.22907262925943164,0.04771032813966165,1265.3999883867552,14945.338516129737
0.7403701850925463,862.8342079542272,849.5612126926651,0.012279596958525879,0.0,0.16843932066590847,0.22899037248685256,0.04771013610576466,1265.342551816701,14954.695197909106
0.7503751875937968,863.6744897999571,850.7862105193357,0.012546328195365738,0.0,0.16852194895368047,0.22890761921865796,0.04770993859266963,1265.2847654935276,14964.056029854579
0.7603801900950475,864.4919638116803,851.9772269489388,0.012814593352865172,0.0,0.16860504868485446,0.22882439105549643,0.04770973562502704,1265.226644482822,14973.420597612385
0.7703851925962981,865.2872992454858,853.135265551056,0.013084365264347754,0.0,0.1686886114525071,0.22874069642215314,0.047709527231073814,1265.1681946745964,14982.788499661065
0.7803901950975487,866.0611448947436,854.2612988557504,0.01335561755976504,0.0,0.16877262909993623,0.22865654349531364,0.04770931344239946,1265.1094217884406,14992.159346941038
0.7903951975987994,866.8141297581818,855.3562693871853,0.013628324566626975,0.0,0.16885709368970886,0.22857194023437358,0.047709094293721305,1265.0503313948195,15001.532762482791
0.80040020010005,867.5468636926707,856.4210906712306,0.013902461292849404,0.0,0.16894199749814306,0.2284868943868179,0.047708869822665076,1264.9909289186626,15010.90838104627
0.8104052026013007,868.2599380416544,857.4566482044609,0.01417800341009159,0.0,0.16902733300994818,0.22840141349344592,0.04770864006955159,1264.9312196428514,15020.285848771133
0.8204102051025512,868.9539262402727,858.4638003862636,0.01445492723740618,0.0,0.16911309291296672,0.22831550489349806,0.04770840507718973,1264.8712087116398,15029.664822837545
0.8304152076038018,869.6293843981946,859.4433794157248,0.014733209725205088,0.0,0.16919927009302094,0.22822917572968296,0.047708164890676114,1264.810901134011,15039.044971137162
0.8404202101050525,870.286851861124,860.396192154859,0.01501282843954368,0.0,0.16928585762886442,0.22814243295310338,0.047707919557201946,1264.7503017869722,15048.425971954013
0.8504252126063031,870.9268517518918,861.3230209596747,0.015293761546724837,0.0,0.16937284878723863,0.22805528332808178,0.047707669125866874,1264.6894154187787,15057.807513654978
0.8604302151075538,871.5498914920029,862.2246244804879,0.015575987798223374,0.0,0.16946023701803664,0.227967733436884,0.04770741364750032,1264.6282466520981,15067.189294389524
0.8704352176088044,872.1564633044607,863.1017384328167,0.01585948651593049,0.0,0.1695480159495718,0.22787978968434186,0.047707153174490285,1264.5667999871075,15076.571021798474
0.880440220110055,872.7470446986523,863.9550763401265,0.016144237577717106,0.0,0.16963617938395237,0.227791458302375,0.04770688776061949,1264.5050798045222,15085.952412731494
0.8904452226113057,873.3220989380401,864.7853302496328,0.016430221403314522,0.0,0.1697247212925612,0.22770274535441218,0.04770661746090909,1264.4430903685668,15095.33319297304
0.9004502251125562,873.8820754913622,865.5931714222967,0.016717418940509772,0.0,0.1698136358116398,0.2276136567397132,0.047706342331469774,1264.3808358298763,15104.713096976482
0.9104552276138069,874.4274104680225,866.3792509981026,0.017005811651653203,0.0,0.16990291723797574,0.2275241981975919,0.04770606242936017,1264.3183202283371,15114.091867606223
0.9204602301150575,874.958527038301,867.1442006376496,0.01729538150047474,0.0,0.16999256002469193,0.2274343753115416,0.04770577781245248,1264.255547495863,15123.469255887489
0.9304652326163081,875.4758358390053,867.8886331410308,0.017586110939205358,0.0,0.1700825587771375,0.22734419351326393,0.04770548853930521,1264.1925214591126,15132.845020763601
0.9404702351175588,875.9797353651238,868.6131430449238,0.01787798289600017,0.0,0.1701729082488778,0.22725365808660267,0.04770519466904283,1264.1292458421406,15142.21892886049
0.9504752376188094,876.4706123480406,869.31830719877,0.0181709807626589,0.0,0.17026360333778323,0.22716277417138284,0.04770489626124217,1264.0657242689895,15151.590754258257
0.9604802401200601,876.9488421208986,870.0046853209891,0.018465088382636864,0.0,0.17035463908221363,0.22707154676715885,0.04770459337582539,1264.0019602662292,15160.960278269506
0.9704852426213106,877.4147889715426,870.6728205359144,0.01876029003934456,0.0,0.17044601065729806,0.2269799807368708,0.04770428607295928,1263.937957265425,15170.327289224275
0.9804902451225612,877.8688064835358,871.323239892239,0.01905657044473064,0.0,0.17053771337130802,0.22688808081041176,0.04770397441296085,1263.8737186055585,15179.691582261406
0.9904952476238119,878.3112378657166,871.9564548637146,0.01935391472814286,0.0,0.17062974266212205,0.22679585158810658,0.047703658456208636,1263.8092475353878,15189.052959126091
1.0005002501250626,878.7424162707338,872.5729618327982,0.019652308425462,0.0,0.17072209409378014,0.2267032975441056,0.047703338263060016,1263.7445472157497,15198.41122797347
1.0105052526263132,879.1626651029778,873.1732425579105,0.01995173746850366,0.0,0.1708147633531264,0.22661042302969298,0.04770301389377378,1263.6796207218108,15207.766203178044
1.0205102551275638,879.5722983163084,873.757764624939,0.020252188174682603,0.0,0.1709077462465375,0.2265172322765123,0.04770268540843813,1263.614471045261,15217.117705148754
1.0305152576288144,879.971620701961,874.3269818835907,0.020553647236934498,0.0,0.1710010386967358,0.22642372939971148,0.04770235286690373,1263.549101096459,15226.465560149572
1.040520260130065,880.3609281669942,874.8813348691714,0.020856101713889824,0.0,0.1710946367396847,0.22632991840100783,0.04770201632872153,1263.4835137065206,15235.809600125393
1.0505252626313157,880.7405080036339,875.421251210343,0.02115953902029458,0.0,0.17118853652156518,0.22623580317167535,0.04770167585308529,1263.4177116293592,15245.149662533095
1.0605302651325663,881.1106391498403,875.9471460233864,0.021463946917672602,0.0,0.1712827342958305,0.22614138749545618,0.047701331498778525,1263.351697543676,15254.485590177634
1.070535267633817,881.4715924414272,876.4594222934733,0.02176931350522427,0.0,0.17137722642033862,0.22604667505139744,0.047700983324125534,1263.285474054902,15263.817231052963
1.0805402701350675,881.823630856032,876.9584712434307,0.022075627210956343,0.0,0.17147200935455967,0.22595166941661518,0.047700631386946586,1263.2190436970893,15273.144438187699
1.090545272636318,882.1670097492354,877.4446726904551,0.022382876783037756,0.0,0.17156707965685672,0.22585637406898787,0.047700275744516775,1263.15240893476,15282.467069495333
1.1005502751375686,882.5019770831095,877.9183953912237,0.022691051281376332,0.0,0.1716624339818386,0.2257607923897795,0.04769991645352855,1263.0855721647056,15291.784987628891
1.1105552776388194,882.8287736474667,878.3799973758196,0.023000140069411274,0.0,0.1717580690777824,0.22566492766619586,0.04769955357005765,1263.0185357177452,15301.098059839907
1.12056028014007,883.1476332740651,878.8298262708798,0.0233101328061164,0.0,0.1718539817841244,0.22556878309387365,0.04769918714953218,1262.9513018604343,15310.40615784154
1.1305652826413206,883.45878304402,879.2682196123517,0.023621019438209333,0.0,0.17195016902901766,0.2254723617793058,0.04769881724670488,1262.883872796738,15319.709157675761
1.1405702851425712,883.7624434886611,879.695505148228,0.0239327901925616,0.0,0.17204662782695446,0.22537566674220297,0.047698443915628184,1262.8162506696547,15329.006939584477
1.1505752876438218,884.0588287840606,880.1120011316234,0.024245435568804936,0.0,0.17214335527645178,0.22527870091779384,0.047698067209631975,1262.7484375628069,15338.299387884426
1.1605802901450726,884.3481469394546,880.5180166045241,0.024558946332129086,0.0,0.17224034855779893,0.22518146715906545,0.04769768718130398,1262.6804355019851,15347.586390845832
1.1705852926463232,884.630599979765,880.9138516725442,0.02487331350626651,0.0,0.17233760493086492,0.2250839682389446,0.047697303882472515,1262.6122464566547,15356.867840574563
1.1805902951475737,884.9063841224147,881.2997977709854,0.025188528366659888,0.0,0.17243512173296477,0.22498620685242227,0.04769691736419151,1262.5438723414277,15366.143632897876
1.1905952976488243,885.1756899486667,881.6761379225538,0.02550458243380635,0.0,0.1725328963767825,0.22488818561862223,0.047696527676727614,1262.4753150174938,15375.413667253417
1.200600300150075,885.4387025696474,882.0431469869865,0.025821467466775293,0.0,0.1726309263483497,0.224789907082816,0.04769613486954942,1262.4065762940154,15384.677846581593
1.2106053026513257,885.6956017872269,882.4010919028566,0.026139175456895623,0.0,0.17272920920507828,0.2246913737183838,0.04769573899131835,1262.3376579294884,15393.93607722107
1.2206103051525763,885.9465622499389,882.7502319218363,0.026457698621607885,0.0,0.17282774257384612,0.22459258792872494,0.047695340089881466,1262.2685616330677,15403.188268807353
1.2306153076538269,886.1917536041066,883.0908188356764,0.026777029398477224,0.0,0.17292652414913387,0.22449355204911697,0.04769493821226582,1262.1992890658587,15412.4343341744
1.2406203101550775,886.4313406403313,883.4230971961473,0.027097160439362996,0.0,0.17302555169121192,0.22439426834852638,0.04769453340467434,1262.1298418421757,15421.674189259109
1.250625312656328,886.6654834355021,883.7473045281805,0.027418084604741204,0.0,0.17312482302437573,0.22429473903137154,0.04769412571248313,1262.0602215307676,15430.907753008607
1.2606303151575788,886.8943374904724,884.0636715364395,0.027739794958175776,0.0,0.17322433603522885,0.22419496623923854,0.04769371518024006,1261.9904296560137,15440.134947290308
1.2706353176588294,887.118053863544,884.3724223055364,0.02806228476093502,0.0,0.17332408867101168,0.22409495205255245,0.047693301851664614,1261.9204676990876,15449.355696804609
1.28064032016008,887.3367792999004,884.6737744941111,0.028385547466749435,0.0,0.1734240789379758,0.22399469849220396,0.04769288576964887,1261.85033709909,15458.569929000145
1.2906453226613306,887.5506563571181,884.9679395229724,0.028709576716707357,0.0,0.173524304899801,0.22389420752113295,0.04769246697625951,1261.7800392541553,15467.777573991561
1.3006503251625812,887.759823526886,885.2551227574977,0.029034366334284842,0.0,0.17362476467605578,0.22379348104587052,0.04769204551274072,1261.7095755225266,15476.978564479703
1.310655327663832,887.9644153530514,885.5355236844813,0.02935991032050636,0.0,0.17372545644069856,0.2236925209180397,0.04769162141951822,1261.6389472236053,15486.172835674144
1.3206603301650826,888.1645625461174,885.8093360836127,0.029686202849232943,0.0,0.17382637842061957,0.22359132893581687,0.0476911947362038,1261.5681556389718,15495.360325218022
1.3306653326663331,888.3603920943003,886.0767481937585,0.03001323826257446,0.0,0.17392752889422175,0.22348990684535425,0.047690765501600854,1261.497202013381,15504.540973115072
1.3406703351675837,888.5520273712597,886.3379428742181,0.030341011066422893,0.0,0.1740289061900397,0.22338825634216458,0.047690333753710484,1261.4260875557316,15513.714721658806
1.3506753376688343,888.7395882406066,886.5930977611155,0.030669515926103303,0.0,0.1741305086853961,0.22328637907246934,0.04768989952973831,1261.3548134400094,15522.881515363782
1.360680340170085,888.9231911572939,886.8423854190834,0.03099874766213965,0.0,0.1742323348050939,0.2231842766345109,0.04768946286610173,1261.283380806208,15532.041300898922
1.3706853426713357,889.1029492659832,887.085973488391,0.031328701246132296,0.0,0.17433438302014378,0.22308195057983032,0.047689023798437855,1261.2117907612242,15541.19402702273
1.3806903451725863,889.2789724964902,887.3240248276616,0.031659371796744454,0.0,0.17443665184652574,0.22297940241451064,0.047688582361611824,1261.1400443797304,15550.339644520507
1.3906953476738368,889.451367656395,887.55669765232,0.03199075457579453,0.0,0.17453913984398425,0.22287663360038773,0.04768813858972554,1261.0681427050242,15559.47810614333
1.4007003501750874,889.6202385209082,887.7841456689051,0.03232284498445184,0.0,0.17464184561485535,0.22277364555622872,0.047687692516126826,1260.9960867498562,15568.60936654888
1.4107053526763382,889.7856859200737,888.0065182053708,0.032655638559533066,0.0,0.1747447678029255,0.22267043965887887,0.04768724417341891,1260.923877497236,15577.733382243998
1.4207103551775888,889.9478078234031,888.2239603375206,0.032989130969896266,0.0,0.17484790509232134,0.22256701724437866,0.047686793593470174,1260.8515159012177,15586.850111528925
1.4307153576788394,890.1066994220198,888.4366130116949,0.03332331801293012,0.0,0.1749512562064286,0.22246337960905074,0.04768634080742421,1260.779002887664,15595.959514443195
1.44072036018009,890.2624532083782,888.6446131638098,0.03365819561113622,0.0,0.17505481990684044,0.22235952801055808,0.04768588584571009,1260.706339354992,15605.061552713105
1.4507253626813406,890.4151590536408,888.8480938348742,0.033993759808801816,0.0,0.17515859499233413,0.22225546366893412,0.04768542873805287,1260.633526174896,15614.156189700741
1.4607303651825914,890.5649042827829,889.0471842830914,0.03433000676876059,0.0,0.175262580297875,0.22215118776758555,0.047684969513484145,1260.5605641930563,15623.243390354513
1.470735367683842,890.7117737474974,889.2420100926536,0.03466693276923914,0.0,0.17536677469364714,0.22204670145426822,0.04768450820035292,1260.4874542298264,15632.323121161133
1.4807403701850925,890.855849896965,889.4326932793301,0.035004534200787044,0.0,0.17547117708411022,0.22194200584203747,0.04768404482633648,1260.414197080902,15641.395350099012
1.490745372686343,890.9972128465552,889.6193523929508,0.035342807563288,0.0,0.1755757864070815,0.22183710201017276,0.04768357941845129,1260.3407935179744,15650.460046593029
1.5007503751875937,891.1359404445247,889.802102616877,0.03568174946305036,0.0,0.1756806016328426,0.22173199100507823,0.04768311200306423,1260.2672442893645,15659.517181470625
1.5107553776888443,891.2721083367677,889.9810558645562,0.036021356609974436,0.0,0.17578562176327012,0.22162667384115903,0.04768264260590352,1260.193550120642,15668.566726919209
1.520760380190095,891.4057900296839,890.1563208732452,0.036361625814795115,0.0,0.1758908458309894,0.22152115150167423,0.047682171252069944,1260.1197117152287,15677.608656444798
1.5307653826913457,891.5370569512158,890.3280032949951,0.03670255398639725,0.0,0.17599627289855152,0.22141542493956756,0.047681697966048014,1260.0457297549838,15686.642944831874
1.5407703851925962,891.6659785101155,890.496205784974,0.037044138129202396,0.0,0.17610190205763157,0.2213094950782754,0.04768122277171706,1259.9716049007757,15695.669568104446
1.5507753876938468,891.7926221534893,890.6610280872126,0.037386375340624604,0.0,0.17620773242824916,0.22120336281251402,0.047680745692362386,1259.8973377930383,15704.688503488229
1.5607803901950974,891.9170534226764,890.8225671178532,0.03772926280859375,0.0,0.17631376315800926,0.22109702900904527,0.04768026675068633,1259.8229290523118,15713.699729373964
1.5707853926963482,892.0393360075092,890.9809170459714,0.03807279780914443,0.0,0.17641999342136375,0.22099049450742222,0.047679785968819346,1259.7483792797714,15722.7032252818
1.5807903951975988,892.1595317990028,891.1361693720485,0.0384169777040688,0.0,0.17652642241889244,0.22088376012071514,0.04767930336833094,1259.6736890577408,15731.698971826718
1.5907953976988494,892.2777009405252,891.2884130041648,0.03876179993863156,0.0,0.17663304937660354,0.2207768266362177,0.04767881897024063,1259.5988589501912,15740.68695068501
1.6008004002001,892.3939018774877,891.4377343319819,0.03910726203934555,0.0,0.17673987354525292,0.22066969481613496,0.04767833279502873,1259.523889503229,15749.667144561705
1.6108054027013505,892.5081914056033,891.5842172985778,0.03945336161180635,0.0,0.17684689419968114,0.22056236539825255,0.04767784486264714,1259.4487812455693,15758.639537158977
1.6208104052026013,892.6206247177552,891.7279434702054,0.03980009633858416,0.0,0.1769541106381689,0.2204548390965885,0.04767735519252999,1259.3735346889991,15767.604113145475
1.630815407703852,892.731255449515,891.8689921040298,0.04014746397717165,0.0,0.1770615221818093,0.22034711660202766,0.04767686380360414,1259.2981503288252,15776.560858126566
1.6408204102051025,892.840135723351,892.0074402139047,0.04049546235798638,0.0,0.17716912817389668,0.2202391985829389,0.047676370714299664,1259.2226286443126,15785.509758615439
1.650825412706353,892.9473161915652,892.143362634252,0.04084408938242599,0.0,0.17727692797933256,0.2201310856857761,0.047675875942560154,1259.1469700991106,15794.450802005089
1.6608304152076037,893.0528460780042,892.2768320821053,0.04119334302097482,0.0,0.17738492098404665,0.22002277853566382,0.0476753795058529,1259.0711751416684,15803.383976541092
1.6708354177088545,893.1567732185688,892.4079192173581,0.04154322131136087,0.0,0.17749310659443376,0.21991427773696623,0.04767488142117897,1258.9952442056376,15812.309271295204
1.680840420210105,893.2591441005624,892.5366927012776,0.04189372235676165,0.0,0.1776014842368057,0.21980558387384178,0.047674381705083126,1258.9191777102676,15821.226676139737
1.6908454227113556,893.3600039009116,892.6632192533349,0.04224484432405754,0.0,0.17771005335685772,0.21969669751078305,0.04767388037366368,1258.8429760607874,15830.136181722683
1.7008504252126062,893.4593965232937,892.7875637063984,0.04259658544213163,0.0,0.17781881341914937,0.21958761919314176,0.04767337744258206,1258.7666396487782,15839.037779443583
1.7108554277138568,893.5573646342002,892.9097890603435,0.04294894400021444,0.0,0.17792776390659917,0.2194783494476404,0.04767287292707245,1258.6901688525386,15847.931461430093
1.7208604302151076,893.6539496979718,893.0299565341226,0.04330191834627269,0.0,0.17803690431999258,0.2193688887828698,0.047672366841951065,1258.6135640374355,15856.81722051527
1.7308654327163582,893.7491920108301,893.1481256163383,0.04365550688544071,0.0,0.17814623417750344,0.21925923768977404,0.047671859201625415,1258.53682555625,15865.695050215483
1.7408704352176088,893.8431307339391,893.2643541143703,0.04400970807849352,0.0,0.17825575301422805,0.2191493966421217,0.047671350020103406,1258.4599537495124,15874.564944709016
1.7508754377188593,893.9358039255226,893.3786982020911,0.04436452044036033,0.0,0.17836546038173148,0.2190393660969655,0.04767083931100226,1258.3829489458283,15883.426898815296
1.76088044022011,894.0272485720654,893.4912124662168,0.044719942538677525,0.0,0.1784753558476063,0.21892914649508868,0.04767032708755729,1258.305811462196,15892.280907974711
1.7708854427213607,894.1175006186273,893.6019499513312,0.04507597299237999,0.0,0.17858543899504287,0.21881873826144077,0.04766981336263056,1258.2285416043167,15901.12696822906
1.7808904452226113,894.2065949982901,893.7109622036214,0.04543261047032978,0.0,0.17869570942241123,0.21870814180556064,0.047669298148719313,1258.1511396668948,15909.965076202547
1.7908954477238619,894.2945656607698,893.818299313364,0.045789853689981216,0.0,0.17880616674285413,0.21859735752198886,0.04766878145796437,1258.073605933932,15918.79522908335
1.8009004502251125,894.3814456002121,893.9240099561963,0.046147701416081335,0.0,0.17891681058389072,0.21848638579066929,0.047668263302158245,1257.9959406790117,15927.617424605749
1.810905452726363,894.4672668821984,894.0281414332097,0.0465061524594048,0.0,0.1790276405870312,0.21837522697733935,0.04766774369275322,1257.9181441655778,15936.43166103277
1.8209104552276139,894.5520606699849,894.1307397098989,0.04686520567552243,0.0,0.17913865640740123,0.21826388143391076,0.047667222640869214,1257.8402166472056,15945.23793713932
1.8309154577288644,894.6358572499944,894.2318494539994,0.04722485996360227,0.0,0.17924985771337668,0.21815234949883935,0.047666700157301484,1257.7621583678638,15954.036252195881
1.840920460230115,894.7186860565855,894.3315140722465,0.047585114265242576,0.0,0.1793612441862282,0.21804063149748576,0.047666176252528204,1257.6839695621732,15962.826605952609
1.8509254627313656,894.8005756961186,894.4297757460865,0.047945967563335676,0.0,0.17947281551977504,0.21792872774246586,0.04766565093671794,1257.6056504556543,15971.608998623977
1.8609304652326162,894.8815539703384,894.5266754663713,0.048307418880961975,0.0,0.17958457142004816,0.21781663853399275,0.047665124219736885,1257.5272012649723,15980.383430873813
1.870935467733867,894.9616478990936,894.6222530670625,0.04866946728031337,0.0,0.17969651160496225,0.2177043641602087,0.047664596111156,1257.4486221981724,15989.149903800839
1.8809404702351176,895.0408837424103,894.7165472579766,0.04903211186164513,0.0,0.17980863580399678,0.217591904897509,0.04766406662025803,1257.3699134549101,15997.908418924571
1.8909454727363681,895.1192870219448,894.8095956566029,0.04939535176225557,0.0,0.17992094375788514,0.2174792610108567,0.04766353575604432,1257.291075226678,16006.658978171712
1.9009504752376187,895.1968825418272,894.9014348190152,0.049759186155492706,0.0,0.18003343521831225,0.2173664327540898,0.04766300352724152,1257.212107697021,16015.401583862882
1.9109554777388693,895.2736944089127,894.9921002699016,0.050123614249787354,0.0,0.18014610994762018,0.2172534203702191,0.04766246994230821,1257.1330110417525,16024.136238699777
1.9209604802401201,895.3497460524612,895.0816265317433,0.050488635287711824,0.0,0.18025896771852187,0.21714022409171932,0.047661935009441214,1257.053785429157,16032.862945752711
1.9309654827413707,895.4250602432604,895.170047153164,0.0508542485450636,0.0,0.18037200831382183,0.2170268441408117,0.04766139873658202,1256.974431020196,16041.581708448508
1.9409704852426213,895.4996591122073,895.2573947364731,0.05122045332997334,0.0,0.1804852315261451,0.21691328072973928,0.0476608611314228,1256.8949479687026,16050.292530558776
1.9509754877438719,895.5735641683644,895.3437009644274,0.051587248982036364,0.0,0.18059863715767271,0.2167995340610353,0.04766032220141257,1256.815336421572,16058.995416188507
1.9609804902451224,895.6467963165067,895.4289966262342,0.051954634871467446,0.0,0.1807122250198845,0.2166856043277838,0.04765978195376293,1256.7355965189472,16067.690369765038
1.970985492746373,895.7193758741714,895.5133116428146,0.05232261039827769,0.0,0.18082599493330886,0.21657149171387377,0.047659240395453925,1256.6557283944026,16076.377396027317
1.9809904952476238,895.7913225882279,895.5966750913524,0.052691174991473515,0.0,0.18093994672727895,0.21645719639424651,0.04765869753323967,1256.5757321751175,16085.056500015517
1.9909954977488744,895.8626556509794,895.6791152291441,0.05306032810827663,0.0,0.18105408023969546,0.21634271853513629,0.0476581533736538,1256.4956079820497,16093.727687060933
2.001000500250125,895.9333937158094,895.7606595167757,0.053430069233364824,0.0,0.18116839531679557,0.2162280582943046,0.04765760792301489,1256.4153559301014,16102.390962776188
2.0110055027513756,896.0035549123894,895.8413346406396,0.053800397878132865,0.0,0.18128289181292842,0.21611321582126847,0.04765706118743173,1256.3349761282827,16111.04633304574
2.0210105052526264,896.0731568614549,895.9211665348159,0.05417131357997291,0.0,0.18139756959033593,0.21599819125752232,0.047656513172808425,1256.2544686798694,16119.69380401667
2.0310155077538767,896.142216689167,896.0001804023312,0.054542815901574,0.0,0.18151242851894006,0.21588298473675446,0.04765596388484941,1256.1738336825579,16128.333382089722
2.0410205102551275,896.2107510410697,896.0784007358169,0.05491490443024019,0.0,0.18162746847613542,0.2157675963850571,0.04765541332906446,1256.093071228615,16136.965073910651
2.0510255127563783,896.2787760956529,896.1558513375822,0.05528757877722665,0.0,0.18174268934658727,0.21565202632113176,0.04765486151077331,1256.0121814050235,16145.58888636179
2.0610305152576287,896.3463075775351,896.2325553391175,0.05566083857709332,0.0,0.18185809102203518,0.21553627465648828,0.0476543084351105,1255.9311642936261,16154.20482655389
2.0710355177588795,896.4133607702759,896.3085352200457,0.05603468348707586,0.0,0.1819736734011017,0.2154203414956392,0.04765375410702987,1255.8500199712619,16162.812901818208
2.08104052026013,896.4799505288254,896.3838128265386,0.056409113186473,0.0,0.1820894363891062,0.21530422693628876,0.04765319853130902,1255.7687485099034,16171.413119698824
2.0910455227613807,896.5460912916283,896.4584093892095,0.05678412737605037,0.0,0.18220537989788352,0.21518793106951692,0.047652641712553706,1255.6873499767862,16180.00548794517
2.1010505252626315,896.6117970923852,896.5323455405002,0.057159725777459834,0.0,0.18232150384560772,0.2150714539799585,0.04765208365520205,1255.605824434538,16188.590014504825
2.111055527763882,896.6770815714842,896.6056413315747,0.0575359081326745,0.0,0.1824378081566199,0.21495479574597748,0.047651524363528756,1255.5241719413011,16197.166707516486
2.1210605302651326,896.7419579871136,896.6783162487372,0.05791267420343847,0.0,0.1825542927612616,0.2148379564398369,0.04765096384164912,1255.4423925508572,16205.735575303177
2.131065532766383,896.8064392260635,896.7503892293839,0.05829002377073103,0.0,0.1826709575957114,0.2147209361278642,0.047650402093523,1255.3604863127418,16214.296626365644
2.141070535267634,896.8705378142253,896.821878677504,0.05866795663424538,0.0,0.1827878026018269,0.2146037348706119,0.04764983912295871,1255.278453272361,16222.849869375957
2.151075537768884,896.934265926796,896.8928024787406,0.05904647261188066,0.0,0.18290482772699013,0.21448635272301464,0.04764927493361673,1255.1962934711037,16231.395313171308
2.161080540270135,896.9976353982,896.9631780150262,0.059425571539247976,0.0,0.18302203292395744,0.21436878973454132,0.04764870952901345,1255.114006946448,16239.932966747985
2.1710855427713858,897.060657731733,897.0330221788025,0.05980525326918889,0.0,0.18313941815071355,0.21425104594934385,0.04764814291252472,1255.03159373207,16248.462839255542
2.181090545272636,897.1233441089374,897.1023513868395,0.06018551767130706,0.0,0.18325698337032878,0.21413312140640162,0.047647575087389364,1254.949053857946,16256.984939991129
2.191095547773887,897.1857053987177,897.1711815936602,0.06056636463151216,0.0,0.18337472855082068,0.2140150161396622,0.04764700605671261,1254.8663873504534,16265.499278394007
2.2011005502751373,897.2477521662025,897.2395283045892,0.06094779405157559,0.0,0.18349265366501918,0.21389673017817845,0.047646435823469405,1254.783594232467,16274.005864040215
2.211105552776388,897.309494681362,897.3074065884263,0.06132980584869833,0.0,0.18361075869043508,0.2137782635462419,0.04764586439050768,1254.7006745234569,16282.504706637428
2.221110555277639,897.3709429273862,897.3748310897653,0.06171239995508972,0.0,0.1837290436091324,0.21365961626351257,0.0476452917605515,1254.6176282395782,16290.995816019924
2.2311155577788893,897.4321066088323,897.4418160409615,0.06209557631755777,0.0,0.18384750840760342,0.21354078834514562,0.047644717936204194,1254.5344553937643,16299.479202143748
2.24112056028014,897.4929951595492,897.5083752737594,0.06247933489711007,0.0,0.18396615307664804,0.21342177980191426,0.04764414291995134,1254.4511559958128,16307.954875081998
2.2511255627813904,897.5536177503833,897.5745222305911,0.06286367566856507,0.0,0.18408497761125528,0.21330259064032986,0.047643566714163706,1254.3677300524719,16316.422845020263
2.2611305652826412,897.6139832966749,897.6402699755537,0.06324859862017393,0.0,0.18420398201048865,0.21318322086275848,0.04764298932110015,1254.2841775675238,16324.8831222522
2.271135567783892,897.674100465549,897.7056312050736,0.06363410375325207,0.0,0.18432316627737408,0.21306367046753458,0.04764241074291039,1254.2004985418664,16333.335717175249
2.2811405702851424,897.733977683011,897.7706182582695,0.06402019108182035,0.0,0.18444253041879108,0.21294393944907186,0.04764183098163774,1254.1166929735903,16341.780640286464
2.291145572786393,897.7936231408474,897.8352431270187,0.06440686063225601,0.0,0.18456207444536665,0.21282402779797077,0.047641250039221754,1254.0327608580587,16350.217902178503
2.3011505752876436,897.8530448033443,897.8995174657367,0.06479411244295238,0.0,0.18468179837137189,0.21270393550112363,0.04764066791750084,1253.9487021879802,16358.647513535707
2.3111555777888944,897.9122504138247,897.9634526008788,0.06518194656398785,0.0,0.1848017022146216,0.21258366254181676,0.04764008461821475,1253.864516953483,16367.069485130312
2.321160580290145,897.9712475010134,898.0270595401689,0.06557036305680314,0.0,0.18492178599637618,0.21246320889982992,0.04763950014300715,1253.7802051421845,16375.483827818809
2.3311655827913955,898.0300433852333,898.0903489815655,0.06595936199388737,0.0,0.1850420497412462,0.2123425745515333,0.04763891449342784,1253.6957667392635,16383.890552538354
2.3411705852926463,898.0886451844403,898.153331321969,0.06634894345847232,0.0,0.18516249347709982,0.2122217594699818,0.04763832767093527,1253.6112017275232,16392.289670303348
2.3511755877938967,898.1470598201026,898.2160166656805,0.0667391075442343,0.0,0.18528311723497193,0.21210076362500713,0.0476377396768987,1253.5265100874617,16400.681192202093
2.3611805902951475,898.2052940229288,898.278414832618,0.06712985435500422,0.0,0.18540392104897635,0.21197958698330688,0.04763715051260052,1253.441691797332,16409.06512939358
2.3711855927963983,898.2633543384512,898.3405353662935,0.06752118400448491,0.0,0.18552490495621993,0.21185822950853225,0.04763656017923835,1253.3567468332062,16417.441493104325
2.3811905952976486,898.3212471324707,898.4023875415617,0.06791309661597597,0.0,0.18564606899671887,0.21173669116137264,0.04763596867792714,1253.2716751690361,16425.81029462536
2.3911955977988995,898.378978596365,898.4639803721415,0.06830559232210572,0.0,0.18576741321331758,0.21161497189963824,0.04763537600970132,1253.1864767767129,16434.171545309306
2.40120060030015,898.4365547522713,898.5253226179206,0.06869867126456992,0.0,0.18588893765160908,0.21149307167834097,0.04763478217551674,1253.1011516261221,16442.525256567526
2.4112056028014006,898.4939814581446,898.5864227920451,0.0690923335938776,0.0,0.1860106423598579,0.21137099044977264,0.04763418717625259,1253.015699685203,16450.871439867362
2.4212106053026514,898.551264412698,898.6472891678027,0.06948657946910304,0.0,0.18613252738892494,0.21124872816358153,0.04763359101271341,1252.9301209200003,16459.210106729504
2.431215607803902,898.6084091602315,898.7079297853013,0.0698814090576444,0.0,0.18625459279219397,0.21112628476684694,0.04763299368563086,1252.8444152947204,16467.541268725392
2.4412206103051526,898.6654210953562,898.7683524579508,0.07027682253498842,0.0,0.1863768386255002,0.2110036602041517,0.047632395195665575,1252.7585827717805,16475.86493747474
2.451225612806403,898.7223054676142,898.8285647787507,0.07067282008448109,0.0,0.18649926494706082,0.2108808544176529,0.04763179554340895,1252.672623311861,16484.18112464313
2.4612306153076537,898.7790673860064,898.8885741263908,0.07106940189710433,0.0,0.18662187181740691,0.21075786734715082,0.04763119472938478,1252.5865368739535,16492.48984193969
2.4712356178089045,898.8357118234306,898.948387671164,0.07146656817125809,0.0,0.1867446592993176,0.21063469893015627,0.04763059275405105,1252.5003234154096,16500.791101114824
2.481240620310155,898.8922436210352,899.0080123807014,0.071864319112548,0.0,0.18686762745775548,0.21051134910195587,0.04762998961780148,1252.4139828919876,16509.08491395808
2.4912456228114057,898.948667492497,899.0674550255304,0.07226265493357872,0.0,0.18699077635980355,0.21038781779567597,0.04762938532096716,1252.327515257898,16517.37129229603
2.501250625312656,899.0049880282262,899.1267221844581,0.07266157585375171,0.0,0.18711410607460427,0.2102641049423451,0.0476287798638181,1252.240920465848,16525.65024799025
2.511255627813907,899.0612096995111,899.185820249787,0.07306108209906872,0.0,0.18723761667329974,0.21014021047095427,0.047628173246564764,1252.1541984670846,16533.921792935387
2.5212606303151577,899.1173368625995,899.2447554323621,0.07346117390193964,0.0,0.1873613082289731,0.21001613430851676,0.04762756546935955,1252.0673492114377,16542.185939057268
2.531265632816408,899.173373762734,899.303533766457,0.07386185150099533,0.0,0.18748518081659218,0.2098918763801253,0.047626956532298176,1251.9803726473606,16550.442698311097
2.541270635317659,899.2293245381404,899.3621611144962,0.07426311514090483,0.0,0.18760923451295353,0.20976743660900896,0.047626346435421164,1251.893268721971,16558.6920826797
2.551275637818909,899.2851932239827,899.4206431716202,0.07466496507219691,0.0,0.18773346939662852,0.20964281491658787,0.04762573517871517,1251.806037381089,16566.934104171887
2.56128064032016,899.340983756288,899.4789854700947,0.07506740155108597,0.0,0.1878578855479104,0.20951801122252714,0.047625122762114384,1251.718678569278,16575.168774820824
2.571285642821411,899.396699975852,899.5371933835634,0.07547042483930197,0.0,0.18798248304876264,0.20939302544478922,0.04762450918550174,1251.6311922298787,16583.396106682485
2.581290645322661,899.4523456321349,899.5952721311492,0.07587403520392409,0.0,0.1881072619827684,0.20926785749968513,0.04762389444871029,1251.5435783050498,16591.616111834195
2.591295647823912,899.507924387153,899.6532267814041,0.07627823291721852,0.0,0.1882322224350814,0.20914250730192482,0.04762327855152442,1251.4558367357995,16599.828802373224
2.6013006503251623,899.5634398193815,899.7110622561069,0.07668301825647947,0.0,0.18835736449237747,0.20901697476466582,0.04762266149368106,1251.367967462025,16608.03419041541
2.611305652826413,899.6188954276734,899.7687833339127,0.0770883915038739,0.0,0.18848268824280756,0.20889125979956147,0.04762204327487091,1251.2799704225424,16616.232288093925
2.621310655327664,899.6742946352084,899.8263946538508,0.0774943529462894,0.0,0.18860819377595142,0.20876536231680767,0.04762142389473956,1251.1918455551233,16624.42310755802
2.6313156578289143,899.7296407934853,899.8839007186746,0.07790090287518535,0.0,0.18873388118277248,0.2086392822251889,0.047620803352888735,1251.103592796527,16632.606660971887
2.641320660330165,899.7849371863656,899.9413058980605,0.07830804158644702,0.0,0.18885975055557352,0.20851301943212308,0.04762018164887729,1251.0152120825312,16640.78296051358
2.6513256628314155,899.8401870341874,899.9986144316562,0.07871576938024238,0.0,0.1889858019879533,0.20838657384370607,0.0476195587822224,1250.9267033479653,16648.95201837396
2.6613306653326663,899.8953934979608,900.0558304319778,0.07912408656088189,0.0,0.18911203557476364,0.20825994536475448,0.04761893475240059,1250.8380665267405,16657.113846755776
2.671335667833917,899.9505596836609,900.1129578871532,0.07953299343668027,0.0,0.1892384514120679,0.20813313389884872,0.04761830955884886,1250.7493015518803,16665.268457872753
2.6813406703351674,900.0056886466369,900.1700006635097,0.07994249031982119,0.0,0.1893650495970996,0.2080061393483745,0.047617683200965634,1250.660408355551,16673.415863948776
2.6913456728364182,900.0607833961537,900.226962508005,0.08035257752622378,0.0,0.18949183022822197,0.20787896161456418,0.047617055678111864,1250.5713868690893,16681.556077217127
2.7013506753376686,900.1158469000857,900.2838470504977,0.0807632553754111,0.0,0.18961879340488785,0.2077516005975371,0.04761642698961197,1250.482237023034,16689.689109919807
2.7113556778389194,900.1708820897852,900.3406578058532,0.08117452419038054,0.0,0.1897459392276007,0.20762405619634008,0.04761579713475493,1250.3929587471532,16697.81497430694
2.72136068034017,900.2258918651472,900.3973981758828,0.08158638429747576,0.0,0.18987326779787525,0.20749632830898626,0.047615166112795156,1250.3035519704706,16705.9336826362
2.7313656828414206,900.2808790998948,900.4540714511126,0.08199883602625996,0.0,0.19000077921819947,0.2073684168324947,0.04761453392295353,1250.214016621297,16714.0452471724
2.7413706853426714,900.3358466471127,900.5106808123733,0.08241187970939047,0.0,0.19012847359199603,0.20724032166292888,0.047613900564418346,1250.124352627256,16722.14968018708
2.7513756878439217,900.3907973450572,900.5672293322117,0.08282551568249424,0.0,0.1902563510235849,0.2071120426954351,0.047613266036346275,1250.0345599153113,16730.246993958226
2.7613806903451725,900.4457340232736,900.6237199761138,0.08323974428404418,0.0,0.19038441161814543,0.20698357982428084,0.04761263033786333,1249.9446384117948,16738.337200770064
2.7713856928464233,900.5006595090542,900.6801556035359,0.08365456585523573,0.0,0.19051265548167914,0.20685493294289262,0.047611993468065744,1249.8545880424329,16746.420312912927
2.7813906953476737,900.555576634274,900.7365389687358,0.08406998073986395,0.0,0.1906410827209723,0.2067261019438939,0.047611355426021,1249.7644087323747,16754.496342683273
2.7913956978489245,900.6104882426426,900.7928727213995,0.08448598928420091,0.0,0.1907696934435585,0.20659708671914323,0.047610716210768726,1249.674100406217,16762.565302383726
2.801400700350175,900.6653971974147,900.8491594070564,0.08490259183687197,0.0,0.19089848775768156,0.20646788715977207,0.04761007582132165,1249.583662988035,16770.6272043233
2.8114057028514257,900.720306389605,900.9054014672716,0.08531978874873256,0.0,0.19102746577225743,0.206338503156223,0.04760943425666654,1249.493096401406,16778.68206081767
2.8214107053526765,900.7752187467565,900.9616012396193,0.08573758037274332,0.0,0.19115662759683683,0.20620893459828835,0.04760879151576519,1249.4024005694391,16786.72988418962
2.831415707853927,900.8301372423152,901.0177609574167,0.08615596706384461,0.0,0.1912859733415669,0.20607918137514858,0.047608147597555356,1249.3115754148016,16794.77068676956
2.8414207103551776,900.8850649056689,901.0738827492248,0.08657494917882944,0.0,0.19141550311715266,0.20594924337541182,0.04760750250095179,1249.2206208597477,16802.804480896262
2.851425712856428,900.9400048329097,901.1299686381046,0.08699452707621456,0.0,0.19154521703481772,0.20581912048715356,0.04760685622484716,1249.1295368261472,16810.831278917634
2.861430715357679,900.9949601983894,901.1860205406255,0.08741470111610969,0.0,0.19167511520626476,0.20568881259795707,0.0476062087681131,1249.0383232355132,16818.851093191748
2.8714357178589296,901.0499342671335,901.2420402656251,0.08783547166008406,0.0,0.1918051977436349,0.2055583195949544,0.04760556012960127,1248.9469800090326,16826.863936087953
2.88144072036018,901.1049304081956,901.2980295127207,0.08825683907103035,0.0,0.1919354647594663,0.20542764136486852,0.04760491030814435,1248.855507067596,16834.869819988246
2.8914457228614308,901.1599521090268,901.3539898705744,0.08867880371302565,0.0,0.19206591636665205,0.20529677779405628,0.04760425930255718,1248.7639043318277,16842.868757288747
2.901450725362681,901.2150029909495,901.4099228149183,0.08910136595118857,0.0,0.19219655267839672,0.20516572876855238,0.0476036071116378,1248.6721717221176,16850.860760401447
2.911455727863932,901.2700868258262,901.4658297063547,0.08952452615153303,0.0,0.19232737380817194,0.2050344941741146,0.04760295373416871,1248.5803091586536,16858.845841756152
2.9214607303651827,901.3252075540194,901.521711787946,0.0899482846808175,0.0,0.19245837986967057,0.2049030738962703,0.04760229916891787,1248.4883165614544,16866.824013802638
2.931465732866433,901.380369303744,901.577570182621,0.09037264190639024,0.0,0.19258957097675983,0.20477146782036418,0.047601643414640064,1248.3961938504046,16874.795289013102
2.941470735367684,901.4355764119192,901.6334058904325,0.09079759819602971,0.0,0.19272094724343264,0.20463967583160758,0.047600986470078106,1248.3039409452886,16882.759679884846
2.9514757378689342,901.4908334466323,901.6892197857134,0.09122315391777995,0.0,0.19285250878375776,0.2045076978151293,0.04760032833396407,1248.2115577658274,16890.7171989433
2.961480740370185,901.546145231327,901.7450126141875,0.09164930943978132,0.0,0.19298425571182834,0.2043755336560278,0.0475996690050207,1248.1190442317168,16898.667858745295
2.971485742871436,901.6015168708393,901.8007849901159,0.09207606513009588,0.0,0.19311618814170883,0.20424318323942514,0.04759900848196273,1248.0264002626636,16906.61167188274
2.981490745372686,901.6569537793994,901.8565373935714,0.0925034213565278,0.0,0.1932483061873805,0.2041106464505224,0.04759834676349831,1247.9336257784291,16914.54865098659
2.991495747873937,901.7124617107229,901.9122701679615,0.09293137848643927,0.0,0.19338060996268552,0.20397792317465666,0.047597683848330456,1247.8407206988657,16922.478808731314
3.0015007503751874,901.7680467903155,901.9679835179477,0.09335993688656152,0.0,0.1935130995812695,0.20384501329735905,0.04759701973515857,1247.7476849439602,16930.402157839613
3.011505752876438,901.8237155501091,902.0236775079374,0.09378909692280232,0.0,0.19364577515652295,0.20371191670441444,0.04759635442267988,1247.6545184338772,16938.318711087777
3.0215107553776885,901.879474965545,902.0793520613693,0.0942188589600503,0.0,0.1937786368015221,0.20357863328192188,0.047595687909591046,1247.5612210890004,16946.228481311347
3.0315157578789393,901.9353324952136,902.1350069610494,0.09464922336197777,0.0,0.19391168462896877,0.20344516291635514,0.04759502019458971,1247.4677928299782,16954.13148141142
3.04152076038019,901.9912961231443,902.190641850849,0.09508019049084265,0.0,0.1940449187511302,0.20331150549462434,0.04759435127637601,1247.3742335777652,16962.027724361367
3.0515257628814405,902.0473744038245,902.2462562391329,0.09551176070729298,0.0,0.19417833927977976,0.20317766090413597,0.047593681153654144,1247.2805432536668,16969.917223214292
3.0615307653826913,902.1035765100081,902.3018495043502,0.09594393437017508,0.0,0.19431194632613868,0.20304362903285222,0.04759300982513389,1247.1867217793808,16977.799991110936
3.0715357678839417,902.1599122833433,902.3574209032896,0.09637671183634947,0.0,0.19444574000081993,0.2029094097693479,0.047592337289531966,1247.0927690770393,16985.67604128832
3.0815407703851925,902.2163922878202,902.4129695825844,0.09681009346051854,0.0,0.194579720413776,0.20277500300286364,0.047591663545573426,1246.998685069244,16993.545387089096
3.0915457728864433,902.2730278659903,902.468494594137,0.09724407959506995,0.0,0.19471388767425124,0.2026404086233541,0.047590988591992844,1246.9044696791036,17001.408041971525
3.1015507753876936,902.3298311978655,902.5239949152281,0.09767867058994266,0.0,0.19484824189074113,0.20250562652152965,0.047590312427535295,1246.8101228302612,17009.26401952029
3.1115557778889444,902.3868153623367,902.5794694741688,0.09811386679252175,0.0,0.19498278317096013,0.20237065658888853,0.0475896350509571,1246.7156444469194,17017.11333345805
3.121560780390195,902.4439944008883,902.6349171824653,0.09854966854757043,0.0,0.19511751162182123,0.2022354987177383,0.04758895646102628,1246.6210344538529,17024.955997657842
3.1315657828914456,902.501383383291,902.6903369745523,0.09898607619720926,0.0,0.19525242734942908,0.20210015280120178,0.0475882766565226,1246.5262927764156,17032.792026156265
3.1415707853926964,902.5589984748711,902.7457278562638,0.0994230900809529,0.0,0.19538753045909144,0.20196461873320612,0.047587595636237094,1246.4314193405303,17040.62143316758
3.1515757878939468,902.6168570048344,902.8010889632789,0.09986071053581856,0.0,0.19552282105535163,0.20182889640844925,0.04758691339897099,1246.3364140726653,17048.44423309866
3.1615807903951976,902.674977535009,902.8564196308664,0.10029893789651954,0.0,0.1956582992420473,0.2016929857223402,0.047586229943533946,1246.2412768997922,17056.260440564798
3.171585792896448,902.7333799282336,902.9117194762789,0.10073777249576141,0.0,0.1957939651224,0.2015568865709077,0.04758554526874136,1246.1460077493202,17064.070070406426
3.1815907953976987,902.7920854154733,902.9669884951668,0.10117721466465911,0.0,0.1959298187991416,0.20142059885067137,0.047584859373410705,1246.0506065490022,17071.873137706654
3.1915957978989495,902.8511166605916,903.0222271733296,0.10161726473329535,0.0,0.1960658603746836,0.20128412245846952,0.04758417225635663,1245.9550732268146,17079.669657809653
3.2016008004002,902.9104978215462,903.0774366150284,0.10205792303144323,0.0,0.19620208995133606,0.20114745729123612,0.04758348391638466,1245.8594077107944,17087.459646339823
3.2116058029014507,902.9702546066145,903.1326186888969,0.10249918988947675,0.0,0.19633850763158373,0.20101060324571973,0.04758279435228332,1245.7636099288402,17095.243119221668
3.221610805402701,903.0304143240978,903.1877761922185,0.1029410656394946,0.0,0.19647511351842656,0.2008735602181366,0.04758210356281445,1245.6676798084623,17103.020092700302
3.231615807903952,903.0910059238024,903.2429130339679,0.10338355061668454,0.0,0.1966119077157939,0.20073632810374956,0.047581411546701445,1245.5716172764828,17110.790583362497
3.2416208104052027,903.1520600284714,903.2980344365135,0.10382664516095434,0.0,0.1967488903290385,0.2005989067963646,0.04758071830261525,1245.4754222586728,17118.55460815812
3.251625812906453,903.2136089532338,903.3531471552756,0.10427034961885626,0.0,0.1968860614655205,0.20046129618773684,0.04758002382915783,1245.3790946793308,17126.312184421826
3.261630815407704,903.2756867110812,903.4082597148756,0.10471466434583042,0.0,0.1970234212352876,0.20032349616687786,0.04757932812484294,1245.2826344607838,17134.063329894823
3.271635817908954,903.3383290023706,903.46338265947,0.10515958970878941,0.0,0.19716096975185898,0.20018550661925802,0.047578631188073976,1245.1860415228177,17141.808062746466
3.281640820410205,903.4015731863833,903.5185288139674,0.1056051260890639,0.0,0.19729870713311845,0.20004732742589715,0.04757793301711874,1245.089315782026,17149.546401595522
3.291645822911456,903.4654582331084,903.573713551789,0.10605127388572216,0.0,0.19743663350232155,0.19990895846233955,0.04757723361008095,1244.9924571510774,17157.278365530772
3.301650825412706,903.5300246536167,903.6289550637595,0.10649803351927228,0.0,0.19757474898921798,0.19977039959751142,0.047576532964868565,1244.895465537896,17165.003974130752
3.311655827913957,903.5953144076689,903.6842746216332,0.10694540543574473,0.0,0.1977130537312901,0.1996316506924603,0.04757583107915873,1244.798340844761,17172.723247482234
3.3216608304152073,903.6613707875844,903.7396968287724,0.10739339011114536,0.0,0.19785154787510317,0.1994927115989804,0.0475751279503595,1244.701082967322,17180.436206197213
3.331665832916458,903.7282382778552,903.7952498496652,0.10784198805625744,0.0,0.197990231577762,0.19935358215813018,0.04757442357556867,1244.6036917935385,17188.142871428117
3.341670835417709,903.7959623905464,903.8509656093844,0.10829119982175789,0.0,0.19812910500846223,0.1992142621986527,0.04757371795152961,1244.5061672025486,17195.843264880772
3.3516758379189593,903.86458947712,903.906879953804,0.10874102600360175,0.0,0.19826816835012356,0.19907475153531345,0.04757301107458492,1244.4085090634785,17203.53740882495
3.36168084042021,903.9341665180026,903.963032761522,0.10919146724861487,0.0,0.19840742180108556,0.1989350499671738,0.04757230294062802,1244.3107172342097,17211.22532610215
3.3716858429214605,904.0047408918814,904.0194679989928,0.1096425242602213,0.0,0.19854686557684462,0.19879515727582248,0.04757159354505353,1244.2127915601104,17218.907040130332
3.3816908454227113,904.0763601274123,904.0762337114219,0.11009419780422186,0.0,0.19868649991180604,0.1986550732235919,0.04757088288270694,1244.1147318727594,17226.582574905362
3.391695847923962,904.1490716406508,904.1333819434851,0.1105464887145283,0.0,0.19882632506102255,0.19851479755178758,0.04757017094783451,1244.0165379886778,17234.251954998985
3.4017008504252124,904.2229224620942,904.1909685858952,0.1109993978987507,0.0,0.19896634130188845,0.19837432997896326,0.04756945773403409,1243.9182097080948,17241.915205553174
3.4117058529264632,904.2979589576861,904.2490531461506,0.11145292634353096,0.0,0.19910654893575616,0.19823367019927413,0.047568743234207886,1243.8197468137691,17249.57235227076
3.4217108554277136,904.3742265484648,904.3076984443682,0.1119070751195122,0.0,0.1992469482894422,0.19809281788094285,0.047568027440517927,1243.7211490698874,17257.22342140231
3.4317158579289644,904.4517694337176,904.3669702377841,0.11236184538583772,0.0,0.19938753971659062,0.19795177266487027,0.0475673103443452,1243.622416221072,17264.86843972928
3.441720860430215,904.5306303225096,904.4269367801452,0.11281723839407769,0.0,0.19952832359886177,0.19781053416342348,0.04756659193625328,1243.523547991509,17272.507434543633
3.4517258629314655,904.6108501782952,904.4876683246475,0.11327325549149156,0.0,0.19966930034692026,0.19766910195942827,0.04756587220595713,1243.4245440842292,17280.14043362388
3.4617308654327164,904.6924679809905,904.54923658118,0.11372989812354681,0.0,0.19981047040119584,0.19752747560539208,0.04756515114229777,1243.3254041805455,17287.767465208046
3.4717358679339667,904.7755205104102,904.61171414023,0.1141871678356294,0.0,0.19995183423239982,0.19738565462297572,0.04756442873322336,1243.2261279396757,17295.388557963597
3.4817408704352175,904.86004215437,904.6751738768824,0.11464506627389959,0.0,0.20009339234178103,0.1972436385027296,0.047563704965776915,1243.126714998549,17303.00374095482
3.4917458729364683,904.9460647440568,904.7396883487676,0.11510359518526407,0.0,0.20023514526111366,0.19710142670410244,0.047562979826091006,1243.0271649718106,17310.613043607926
3.5017508754377187,905.0336174185177,904.8053292016582,0.1155627564164554,0.0,0.20037709355241368,0.19695901865572613,0.047562253299389505,1242.9274774520206,17318.21649567432
3.5117558779389695,905.1227265193478,904.8721665956596,0.11602255191222674,0.0,0.20051923780738617,0.19681641375597358,0.04756152536999606,1242.8276520100492,17325.814127192414
3.52176088044022,905.2134155159027,904.940268663723,0.11648298371268687,0.0,0.2006615786466118,0.19667361137378195,0.04756079602134925,1242.7276881956607,17333.40596844843
3.5317658829414706,905.30570496061,905.0097010125454,0.11694405394981777,0.0,0.20080411671848414,0.19653061084972898,0.04756006523602401,1242.6275855382808,17340.992049936605
3.5417708854427215,905.3996124733351,905.080526274016,0.11740576484322632,0.0,0.20094685269791415,0.19638741149734526,0.047559332995758714,1242.527343547926,17348.572402319136
3.551775887943972,905.4951527531872,905.1528037133075,0.11786811869519409,0.0,0.20108978728482133,0.1962440126046439,0.04755859928148736,1242.426961716296,17356.147056386337
3.5617808904452226,905.5923376156984,905.2265888976067,0.11833111788509483,0.0,0.2012329212024319,0.1961004134358455,0.04755786407337634,1242.3264395179986,17363.716043017328
3.571785892946473,905.6911760529576,905.3019334274588,0.11879476486325316,0.0,0.20137625519540672,0.19595661323327562,0.04755712735086493,1242.2257764118995,17371.27939314152
3.5817908954477238,905.791674314045,905.3788847308268,0.11925906214431971,0.0,0.20151979002782178,0.19581261121941224,0.04755638909270889,1242.1249718425797,17378.837137701237
3.5917958979489746,905.8938360029681,905.4574859183193,0.11972401230023595,0.0,0.201663526481023,0.19566840659905962,0.04755564927702638,1242.024025241884,17386.38930761577
3.601800900450225,905.9976621912659,905.5377756966701,0.12018961795285789,0.0,0.2018074653513767,0.19552399856162836,0.0475549078813457,1241.922936030537,17393.93593374691
3.6118059029514757,906.1031515424783,905.6197883364408,0.12065588176630322,0.0,0.20195160744793494,0.19537938628350077,0.04755416488265388,1241.82170361983,17401.477046866316
3.621810905452726,906.2103004457816,905.70355368912,0.12112280643907747,0.0,0.20209595359003263,0.19523456893046484,0.04755342025744584,1241.720327413348,17409.01267762468
3.631815907953977,906.3191031562544,905.7890972482427,0.12159039469602798,0.0,0.20224050460483056,0.195089545660202,0.0475526739817734,1241.618806808736,17416.54285652295
3.6418209104552277,906.4295519394299,905.8764402488678,0.12205864928016377,0.0,0.20238526132481724,0.19494431562481637,0.04755192603129365,1241.517141199496,17424.06761388549
3.651825912956478,906.5416372180181,905.9655997996674,0.12252757294437051,0.0,0.202530224585276,0.19479887797339707,0.04755117638131632,1241.4153299768038,17431.58697983538
3.661830915457729,906.6553477189165,906.0565890419886,0.12299716844303867,0.0,0.20267539522172512,0.19465323185460776,0.047550425006849716,1241.313372531344,17439.10098427172
3.6718359179589792,906.7706706188771,906.1494173304799,0.12346743852361361,0.0,0.20282077406733115,0.1945073764193009,0.04754967188264508,1241.2112682551626,17446.60965684903
3.68184092046023,906.8875916874306,906.2440904302351,0.1239383859180652,0.0,0.20296636195029663,0.19436131082315708,0.04754891698323887,1241.1090165435342,17454.113026958617
3.691845922961481,907.006095425906,906.3406107258147,0.12441001333426513,0.0,0.20311215969121632,0.19421503422935416,0.047548160282993024,1241.006616796848,17461.611123711948
3.701850925462731,907.1261652016012,906.4389774379837,0.12488232344724981,0.0,0.20325816810039687,0.1940685458112716,0.047547401756133006,1240.9040684225197,17469.10397592583
3.711855927963982,907.2477833763562,906.5391868444832,0.12535531889033746,0.0,0.20340438797512872,0.19392184475524127,0.04754664137678341,1240.8013708369301,17476.591612109463
3.7218609304652324,907.370931428965,906.6412325016465,0.12582900224605792,0.0,0.20355082009689784,0.1937749302633569,0.047545879119001336,1240.6985234674062,17484.07406045317
3.731865932966483,907.4955900710214,906.7451054641379,0.12630337603684524,0.0,0.20369746522852197,0.19362780155635698,0.04754511495680725,1240.5955257542496,17491.55134881878
3.741870935467734,907.6217393559368,906.8507945005528,0.1267784427154325,0.0,0.2038443241111923,0.19348045787660154,0.04754434886421357,1240.4923771528304,17499.02350473149
3.7518759379689843,907.7493587809895,906.9582863030374,0.12725420465488138,0.0,0.20399139746139963,0.1933328984911624,0.047543580815250834,1240.3890771357553,17506.490555373202
3.761880940470235,907.8784273823608,907.0675656894399,0.12773066413816692,0.0,0.2041386859677208,0.19318512269505209,0.04754281078399174,1240.2856251951364,17513.95252757714
3.7718859429714855,908.0089238232032,907.178615796866,0.12820782334722963,0.0,0.20428619028743752,0.19303712981461846,0.04754203874457284,1240.1820208449674,17521.409447823757
3.7818909454727363,908.1408264748575,907.29141826581,0.12868568435139732,0.0,0.204433911042958,0.19288891921113588,0.047541264671214285,1240.0782636236395,17528.861342237677
3.791895947973987,908.2741134913841,907.405953414284,0.1291642490950673,0.0,0.2045818488180071,0.19274049028462606,0.047540488538237426,1239.9743530966145,17536.308236585766
3.8019009504752375,908.4087628776215,907.5222004015942,0.12964351938452887,0.0,0.20473000415354783,0.1925918424779465,0.047539710320080704,1239.8702888592838,17543.750156276088
3.8119059529764883,908.5447525510126,907.640137381597,0.13012349687379454,0.0,0.2048783775433939,0.19244297528118712,0.047538929991313594,1239.7660705400385,17551.187126357734
3.8219109554777386,908.6820603974602,907.7597416454229,0.1306041830492934,0.0,0.2050269694294673,0.1922938882364201,0.047538147526649005,1239.661697803585,17558.619171521386
3.8319159579789894,908.82066432149,907.8809897537828,0.1310855792132681,0.0,0.20517578019665197,0.19214458094285333,0.04753736290095402,1239.5571703545459,17566.04631610065
3.8419209604802402,908.960542291001,908.0038576590673,0.13156768646569864,0.0,0.20532481016718895,0.19199505306244097,0.047536576089259305,1239.4524879413689,17573.468584073904
3.8519259629814906,909.1016723768867,908.1283208175294,0.1320505056845607,0.0,0.2054740595945535,0.1918453043260117,0.0475357870667671,1239.3476503606025,17580.885999066773
3.8619309654827414,909.2440327878041,908.2543542919001,0.1325340375042067,0.0,0.20562352865674774,0.19169533453998008,0.047534995808858005,1239.2426574615745,17588.298584354983
3.8719359679839918,909.3876019003608,908.3819328448235,0.1330182822916359,0.0,0.20577321744893734,0.1915451435937134,0.04753420229109665,1239.1375091515256,17595.706362867735
3.8819409704852426,909.5323582849753,908.5110310235277,0.13350324012039808,0.0,0.20592312597535256,0.19139473146763408,0.047533406489236346,1239.032205401256,17603.109357191315
3.891945972986493,909.6782807276568,908.6416232361614,0.13398891074184813,0.0,0.20607325414036562,0.19124409824214397,0.04753260837922275,1238.9267462513428,17610.507589573084
3.9019509754877437,909.8253482479279,908.773683820233,0.13447529355344243,0.0,0.2062236017386492,0.19109324410746817,0.04753180793719681,1238.8211318189979,17617.90108192566
3.9119559779889945,909.9735401131001,908.9071871035829,0.1349623875637345,0.0,0.2063741684443092,0.19094216937452332,0.047531005139496825,1238.7153623056365,17625.289855831285
3.921960980490245,910.1228358490921,909.0421074583131,0.13545019135369535,0.0,0.20652495379887598,0.1907908744869276,0.04753019996265984,1238.609438005245,17632.67393254637
3.9319659829914957,910.2732152479571,909.1784193480806,0.13593870303394454,0.0,0.2066759571980248,0.19063936003428025,0.047529392383422596,1238.5033593136263,17640.053333006104
3.941970985492746,910.424658372269,909.3160973691444,0.1364279201974371,0.0,0.20682717787688584,0.1904876267668524,0.047528582378721755,1238.3971267386348,17647.42807782912
3.951975987993997,910.5771455564923,909.4551162855297,0.1369178398671067,0.0,0.20697861489378663,0.1903356756118442,0.04752776992569382,1238.2907409114946,17654.7981873222
3.9619809904952477,910.7306574054384,909.595451058656,0.13740845843791383,0.0,0.2071302671122577,0.19018350769137868,0.047526955001674566,1238.1842025993333,17662.16368148493
3.971985992996498,910.8851747898909,909.7370768717359,0.13789977161269476,0.0,0.20728213318111283,0.19003112434242148,0.047526137584198234,1238.0775127190507,17669.524580014302
3.981990995497749,911.0406788394552,909.8799691492368,0.13839177433115216,0.0,0.2074342115123993,0.18987852713882938,0.04752531765099641,1237.9706723526763,17676.88090230924
3.991995997998999,911.1971509326664,910.0241035716562,0.13888446069125937,0.0,0.20758650025699282,0.18972571791575485,0.0475244951799967,1237.8636827643622,17684.232667474946
4.00200100050025,911.3545726843691,910.1694560858451,0.13937782386228303,0.0,0.2077389972775894,0.1895726987966532,0.04752367014932125,1237.756545419191,17691.579894327147
4.012006003001501,911.512925930352,910.3160029110683,0.1398718559885561,0.0,0.2078917001188253,0.18941947222316144,0.04752284253728518,1237.6492620039833,17698.922601396083
4.022011005502751,911.6721927092011,910.4637205409742,0.1403665480830561,0.0,0.20804460597423124,0.18926604098814326,0.04752201232239498,1237.5418344503082,17706.260806930284
4.0320160080040015,911.832355241308,910.6125857416047,0.140861889909759,0.0,0.20819771164970174,0.18911240827221865,0.04752117948334689,1237.4342649599228,17713.59452890007
4.042021010505253,911.993395904946,910.762575545554,0.14135786985365312,0.0,0.20835101352313234,0.1889585776841255,0.047520343999025313,1237.3265560328816,17720.92378500079
4.052026013006503,912.1552972093014,910.9136672423476,0.14185447477720728,0.0,0.2085045074998514,0.18880455330528725,0.047519505848501405,1237.218710498569,17728.248592655615
4.0620310155077535,912.3180417643214,911.0658383650895,0.14235168986199478,0.0,0.20865818896344213,0.18865033973898948,0.04751866501103169,1237.1107315499494,17735.568969018077
4.072036018009005,912.4816122472182,911.2190666733908,0.14284949843408232,0.0,0.20881205272152462,0.18849594216459778,0.04751782146605705,1237.0026227813225,17742.884930974084
4.082041020510255,912.6459913654411,911.3733301325675,0.1433478817716991,0.0,0.20896609294603494,0.18834136639727767,0.047516975193201784,1236.8943882299138,17750.19649514353
4.092046023011505,912.8111618159037,911.528606889065,0.14384681889361778,0.0,0.20912030310751611,0.1881866189537035,0.04751612617227313,1236.786032421633,17757.503677881406
4.102051025512757,912.9771062402384,911.6848752420417,0.1443462863265947,0.0,0.20927467590290652,0.1880317071242698,0.04751527438326103,1236.6775604213651,17764.806495278288
4.112056028014007,913.1438071758201,911.8421136110188,0.1448462578501513,0.0,0.2094292031762933,0.18787663905233817,0.04751441980633837,1236.5689778881554,17772.104963160302
4.122061030515257,913.3112470022891,912.0003004994776,0.14534670421692863,0.0,0.20958387583208116,0.1877214238210687,0.0475135624218617,1236.460291135685,17779.399097088408
4.132066033016508,913.4794078832896,912.1594144542693,0.14584759284682147,0.0,0.20973868374001983,0.1875660715483937,0.047512702210372425,1236.3515071984086,17786.68891235695
4.142071035517759,913.6482717031258,912.3194340206792,0.14634888749310693,0.0,0.20989361563153588,0.18741059349068628,0.047511839152598684,1236.2426339037522,17793.97442399144
4.152076038019009,913.8178199980437,912.4803376929814,0.14685054787883745,0.0,0.21004865898683228,0.1872550021556634,0.047510973229457826,1236.1336799507421,17801.25564674554
4.16208104052026,913.9880338818418,912.6421038603055,0.14735252930187667,0.0,0.21020379991225094,0.18709931142502445,0.047510104422059614,1236.024654995413,17808.53259509714
4.172086043021511,914.1588939655433,912.804710747642,0.1478547822071412,0.0,0.2103590230074535,0.18694353668727354,0.04750923271171033,1235.9155697433082,17815.805283243397
4.182091045522761,914.3303802708816,912.9681363518179,0.14835725172488362,0.0,0.2105143112220579,0.1867876949810859,0.04750835807991766,1235.8064360493252,17823.073725094844
4.192096048024012,914.502472137407,913.1323583722963,0.1488598771742383,0.0,0.210669645701489,0.18663180514946115,0.04750748050839662,1235.6972670250711,17830.33793426829
4.202101050525263,914.6751481230812,913.2973541366805,0.14936259153175252,0.0,0.21082500562195733,0.18647588800474846,0.047506599979076504,1235.5880771537918,17837.597924078596
4.212106053026513,914.8483858983303,913.4631005208615,0.14986532086535256,0.0,0.21098036801470602,0.18631996650440544,0.04750571647410895,1235.478882412775,17844.853707529117
4.222111055527764,915.0221621336415,913.6295738638041,0.1503679837350373,0.0,0.21113570757992586,0.1861640659370884,0.04750482997587732,1235.3697004029502,17852.105297300848
4.232116058029014,915.196452380943,913.7967498770646,0.15087049056265026,0.0,0.2112909964910701,0.18600821411834473,0.047503940467007344,1235.2605504851742,17859.352705740144
4.242121060530265,915.3712309492036,913.9646035492412,0.1513727429744578,0.0,0.21144620419072524,0.18585244159474942,0.04750304793037913,1235.1514539224004,17866.59594484493
4.252126063031516,915.5464707749265,914.1331090457102,0.1518746331218629,0.0,0.21160129717969292,0.18569678185483185,0.047502152349140764,1235.0424340265715,17873.835026249373
4.262131065532766,915.7221432885025,914.3022396041683,0.15237604298750418,0.0,0.2117562388015341,0.18554127154454128,0.04750125370672341,1234.9335163086807,17881.06996120698
4.272136068034017,915.8982182777157,914.4719674267243,0.15287684368622037,0.0,0.21191098902551914,0.18538595068430727,0.04750035198685816,1234.8247286299384,17888.300760572016
4.282141070535268,916.0746637501039,914.6422635695243,0.15337689477291916,0.0,0.21206550423172113,0.18523086288395818,0.04749944717359446,1234.7161013514487,17895.52743477927
4.292146073036518,916.2514457963006,914.813097831186,0.15387604357224877,0.0,0.2122197370028794,0.18507605555087034,0.04749853925132045,1234.6076674791739,17902.749993822224
4.302151075537768,916.4285284569964,914.9844386416389,0.15437412454809876,0.0,0.21237363592862996,0.18492158008575182,0.04749762820478503,1234.499462800284,17909.96844722956
4.31215607803902,916.6058735966758,915.1562529533253,0.15487095873427698,0.0,0.21252714542873072,0.184767492059432,0.0474967140191217,1234.3915260062802,17917.182804040152
4.32216108054027,916.783440787851,915.3285061370897,0.15536635325110995,0.0,0.21268020560296633,0.18461385136297329,0.047495796679874254,1234.2838987975417,17924.393072776616
4.33216608304152,916.9611872100651,915.5011618854849,0.15586010093603306,0.0,0.21283275211644684,0.18446072232238966,0.047494876173024135,1234.1766259632184,17931.599261417654
4.3421710855427715,917.1390675684723,915.6741821265975,0.15635198011926066,0.0,0.2129847161299534,0.18430817376831907,0.04749395248501945,1234.0697554297594,17938.801377369276
4.352176088044022,917.3170340372607,915.8475269518577,0.15684175457808203,0.0,0.2131360242857484,0.18415627905023307,0.04749302560280538,1233.9633382708093,17945.999427435385
4.362181090545272,917.4950362335335,916.0211545615987,0.15732917370490118,0.0,0.21328659875975253,0.18400511598427946,0.047492095513855914,1233.8574286708917,17953.19341778786
4.3721860930465235,917.6730212274465,916.1950212323343,0.1578139729244482,0.0,0.21343635739109088,0.183854766723757,0.04749116220620652,1233.7520838352077,17960.383353936722
4.382191095547774,917.8509335943406,916.3690813098088,0.15829587439426673,0.0,0.21358521389959678,0.18370531754163252,0.047490225668487485,1233.6473638381808,17967.569240700763
4.392196098049024,918.0287155142848,916.5432872317799,0.15877458801923292,0.0,0.21373307820082377,0.1835568585155505,0.04748928588995758,1233.5433314040965,17974.751082179333
4.402201100550275,918.2063069237538,916.7175895842101,0.15924981280516623,0.0,0.21387985682634694,0.1834094831075529,0.04748834286053746,1233.4400516144146,17981.928881725682
4.412206103051526,918.3836457231101,916.8919371940091,0.1597212385683264,0.0,0.21402545345456853,0.18326328763329372,0.047487396570842354,1233.3375915381278,17989.10264192278
4.422211105552776,918.5606680420931,917.0662772606876,0.16018854800668586,0.0,0.21416976955385733,0.18311837061892025,0.04748644701221365,1233.236019783884,17996.272364562126
4.4322161080540265,918.7373085636561,917.240555528243,0.1606514191254847,0.0,0.214312705135695,0.1829748320479452,0.047485494176748404,1233.135405975503,18003.438050626362
4.442221110555278,918.9135009043107,917.4147164973209,0.16110952799418096,0.0,0.21445415961072334,0.1828327725052164,0.04748453805732655,1233.0358201558279,18010.599700276314
4.452226113056528,919.0891780466516,917.588703676213,0.1615625517949988,0.0,0.214594032735336,0.18269229223034086,0.04748357864763492,1232.9373321275189,18017.75731284324
4.4622311155577785,919.264272817174,917.7624598676431,0.16201017210615945,0.0,0.21473222563114167,0.18255349009823368,0.047482615942187625,1232.8400107430996,18024.91088682667
4.47223611805903,919.4387183999556,917.9359274866692,0.16245207834658484,0.0,0.21486864185456844,0.18241646254952476,0.04748164993634216,1232.7439231600843,18032.060419898615
4.48224112056028,919.6124488744886,918.1090489034654,0.1628879712947109,0.0,0.21500318848948116,0.182281302497948,0.04748068062631079,1232.6491340800737,18039.20590891411
4.4922461230615305,919.7853997640758,918.2817668033923,0.16331756658345906,0.0,0.21513577723239932,0.18214809824512776,0.04747970800916692,1232.5557049930078,18046.34734992865
4.502251125562781,919.9575085799689,918.4540245557192,0.16374059806754362,0.0,0.21526632543807667,0.18201693243499978,0.04747873208284592,1232.4636934490181,18053.48473822226
4.512256128064032,920.1287153459344,918.6257665817244,0.16415682095901826,0.0,0.21539475709312073,0.1818878810801886,0.047477752846140614,1232.3731523803963,18060.61806833016
4.5222611305652824,920.2989630882963,918.7969387127415,0.16456601463268117,0.0,0.215521003687104,0.1817610126908901,0.0474767702986911,1232.284129494946,18067.74733407957
4.532266133066533,920.4681982776982,918.9674885290686,0.16496798501453386,0.0,0.21564500495421288,0.18163638753321287,0.04747578444096927,1232.1966667594963,18074.87252863218
4.542271135567784,920.6363712108187,919.1373656714769,0.16536256648321943,0.0,0.21576670946367532,0.18151405703873713,0.04747479527425817,1232.1107999887201,18081.993644531554
4.552276138069034,920.8034363228777,919.3065221183089,0.16574962323506529,0.0,0.21588607504363594,0.1813940633806242,0.04747380280062671,1232.0265585499471,18089.11067375462
4.562281140570285,920.9693524248237,919.474912422726,0.16612905008645057,0.0,0.21600306903031652,0.18127643922443643,0.04747280702289992,1231.943965189641,18096.223607766366
4.572286143071536,921.1340828623274,919.6424939064217,0.16650077271096492,0.0,0.2161176683416758,0.18116120765445715,0.04747180794462581,1231.8630359820986,18103.332437576733
4.582291145572786,921.2975955969179,919.8092268079617,0.1668647473315199,0.0,0.2162298593818276,0.18104838226924908,0.04747080557003896,1231.783780396009,18110.437153798797
4.592296148074037,921.4598632125291,919.9750743856636,0.16722095990765648,0.0,0.2163396377887116,0.18093796743395918,0.04746979990402178,1231.706201470167,18117.537746707185
4.602301150575287,921.6208628532388,920.1400029765339,0.1675694248746413,0.0,0.21644700804258987,0.18082995867179638,0.047468790952063994,1231.6302960861092,18124.634206295952
4.612306153076538,921.7805760999269,920.303982014108,0.16791018350280137,0.0,0.2165519829566217,0.1807243431734306,0.04746777872022101,1231.5560553228709,18131.72652233503
4.622311155577789,921.9389887949178,920.4669840090759,0.16824330195266868,0.0,0.21665458307298197,0.18062110040084756,0.04746676321507169,1231.483464877515,18138.814684424593
4.632316158079039,922.0960908243951,920.6289844972777,0.16856886910404822,0.0,0.21675483598877798,0.18052020276140499,0.047465744443676156,1231.4125055345537,18145.898682046787
4.64232116058029,922.2518758685273,920.7899619600491,0.16888699423555556,0.0,0.21685277563553199,0.18042161632832407,0.04746472241353393,1231.3431536677008,18152.978504614377
4.652326163081541,922.4063411289212,920.9498977220029,0.16919780462629774,0.0,0.21694844153448548,0.1803253015853589,0.04746369713254308,1231.275381758463,18160.054141515884
4.662331165582791,922.5594870423157,921.1087758312063,0.1695014431439726,0.0,0.21704187804768252,0.18023121417568833,0.047462668608960396,1231.2091589176666,18167.125582157227
4.672336168084042,922.7113169884486,921.2665829264049,0.1697980658746161,0.0,0.21713313364198178,0.1801393056378792,0.04746163685136306,1231.1444513979807,18174.192815999526
4.682341170585293,922.8618369988887,921.4233080954846,0.17008783983936068,0.0,0.21722226018008298,0.18004952411483693,0.04746060186861196,1231.0812230876236,18181.255832593226
4.692346173086543,923.0110554724647,921.5789427288903,0.17037094083381754,0.0,0.2173093122496268,0.17996181502468384,0.04745956366981665,1231.0194359775585,18188.314621608522
4.702351175587793,923.1589829016992,921.7334803711321,0.1706475514159656,0.0,0.21739434653840403,0.17987612168552808,0.047458522264302375,1230.9590505965712,18195.369172862258
4.712356178089045,923.3056316135529,921.8869165729786,0.17091785905984447,0.0,0.2174774212610468,0.17979238588875376,0.04745747766157874,1230.9000264105007,18202.41947634142
4.722361180590295,923.4510155267694,922.0392487464092,0.17118205448470342,0.0,0.2175585956401983,0.1797105484178319,0.047456429871310435,1230.8423221835255,18209.465522223494
4.732366183091545,923.5951499272422,922.1904760239211,0.17144033016285418,0.0,0.21763792944317012,0.17963054951164606,0.04745537890328981,1230.7858963008139,18216.507300893885
4.742371185592797,923.7380512620815,922.3405991233723,0.1716928790042891,0.0,0.21771548257348577,0.17955232927293235,0.04745432476741125,1230.7307070529444,18223.544802960616
4.752376188094047,923.8797369524715,922.4896202191718,0.17193989321206407,0.0,0.2177913147154474,0.17947582802369805,0.04745326747364731,1230.6767128834072,18230.578019266562
4.762381190595297,924.0202252249356,922.6375428203337,0.17218156329951276,0.0,0.21786548502895195,0.17940098661039094,0.04745220703202661,1230.6238726011088,18237.606940899495
4.7723861930965485,924.1595349602865,922.7843716556622,0.17241807725827393,0.0,0.21793805189113594,0.1793277466622419,0.047451143452613254,1230.572145560266,18244.631559200123
4.782391195597799,924.2976855592929,922.9301125661423,0.17264961986490793,0.0,0.21800907268105338,0.17925605080657483,0.047450076745487846,1230.5214918103343,18251.651865768374
4.792396198099049,924.4346968239325,923.0747724044596,0.17287637211321627,0.0,0.21807860360338574,0.1791858428450854,0.04744900692072991,1230.4718722187513,18258.667852468072
4.8024012006003,924.570588853017,923.2183589414665,0.1730985107593033,0.0,0.2181466995471597,0.17911706789511325,0.0474479339884017,1230.423248569305,18265.679511430306
4.812406203101551,924.7053819509354,923.3608807793231,0.1733162079666748,0.0,0.21821341397552796,0.17904967249985165,0.04744685795853318,1230.3755836388702,18272.68683505555
4.822411205602801,924.8390965482774,923.502347271003,0.1735296310392287,0.0,0.2182787988428414,0.17898360471126656,0.047445778841108295,1230.328841255137,18279.689816014725
4.832416208104052,924.9717531331303,923.642768445806,0.1737389422307401,0.0,0.21834290453547472,0.17891881414926314,0.04744469664605231,1230.282986337802,18286.688447249453
4.842421210605303,925.1033721919064,923.7821549405173,0.17394429862028415,0.0,0.2184057798331265,0.178855252040378,0.047443611383220105,1230.2379849255005,18293.682721971396
4.852426213106553,925.2339741586343,923.9205179358398,0.17414585204399466,0.0,0.21846747188761323,0.17879287123897883,0.04744252306238554,1230.1938041905573,18300.67263366106
4.862431215607804,925.3635793717217,924.0578690977333,0.1743437490744353,0.0,0.21852802621644782,0.17873162623367903,0.04744143169323163,1230.1504124434416,18307.658176065943
4.872436218109055,925.4922080372966,924.1942205233133,0.17453813103988391,0.0,0.21858748670881306,0.17867147314135948,0.04744033728534152,1230.1077791285923,18314.639343198276
4.882441220610305,925.6198801982993,924.3295846909623,0.1747291340765845,0.0,0.21864589564177161,0.17861236969095237,0.04743923984819033,1230.0658748131143,18321.61612933234
4.8924462231115555,925.7466157086033,924.4639744143423,0.17491688920797988,0.0,0.2187032937048555,0.1785542751988478,0.04743813939113761,1230.024671169641,18328.588529001394
4.902451225612806,925.8724342114997,924.597402800003,0.1751015224456187,0.0,0.21875972003138583,0.1784971505375691,0.0474370359234205,1229.9841409545113,18335.556536994456
4.912456228114057,925.9973551219757,924.7298832083125,0.17528315490722882,0.0,0.21881521223512398,0.17844095809911795,0.04743592945414752,1229.9442579822332,18342.520148352745
4.9224612306153075,926.1213976122635,924.8614292174425,0.17546190294797084,0.0,0.21886980645101603,0.17838566175422654,0.04743481999229287,1229.9049970970984,18349.47935836599
4.932466233116558,926.244580600216,924.9920545901823,0.1756378783015623,0.0,0.2189235373790026,0.17833122680854413,0.04743370754669133,1229.8663341426632,18356.4341625686
4.942471235617809,926.36692274011,925.12177324335,0.17581118822838224,0.0,0.21897643832999725,0.17827761995665603,0.04743259212603366,1229.8282459297186,18363.38455673571
4.9524762381190595,926.4884424155347,925.2505992196039,0.17598193566819825,0.0,0.2190285412733005,0.17822480923466658,0.047431473738862334,1229.7907102032655,18370.33053687917
4.96248124062031,926.6091577340634,925.3785466614695,0.1761502193954906,0.0,0.2190798768848212,0.1781727639719759,0.04743035239356791,1229.7537056089209,18377.272099243426
4.972486243121561,926.7290865234489,925.5056297874074,0.17631613417569655,0.0,0.219130474595584,0.17812145474276972,0.04742922809838558,1229.717211659134,18384.20924030143
4.982491245622811,926.8482463291186,925.6318628697738,0.1764797709210372,0.0,0.2191803626401081,0.1780708533176394,0.04742810086139227,1229.6812086994848,18391.141956750467
4.992496248124062,926.9666544127706,925.7572602145221,0.17664121684477066,0.0,0.21922956810429745,0.17802093261568933,0.047426970690503986,1229.6456778753302,18398.070245508014
5.002501250625312,927.0843277519054,925.8818361425209,0.17680055561300181,0.0,0.21927811697257316,0.1779716666574038,0.04742583759347348,1229.6106010989733,18404.99410370758
5.012506253126563,927.2012830401492,926.0056049723663,0.1769578674933296,0.0,0.21932603417402421,0.1779230305184944,0.04742470157788829,1229.5759610175203,18411.913528694593
5.022511255627814,927.317536688245,926.1285810045814,0.17711322949979846,0.0,0.21937334362741118,0.1778750002848957,0.047423562651168996,1229.5417409815336,18418.828518022267
5.032516258129064,927.4331048255972,926.2507785070939,0.17726671553367493,0.0,0.21942006828487376,0.1778275530090563,0.047422420820567766,1229.5079250145905,18425.73906944755
5.042521260630315,927.5480033022919,926.3722117019109,0.1774183965198329,0.0,0.2194662301742757,0.1777806666675936,0.047421276093167104,1229.4744977837906,18432.645180927073
5.052526263131566,927.6622476915023,926.4928947528957,0.17756834053846096,0.0,0.21951185044009702,0.1777343201204007,0.047420128475878884,1229.4414445712746,18439.54685061314
5.062531265632816,927.7758532922184,926.6128417545708,0.17771661295199245,0.0,0.21955694938284342,0.17768849307123638,0.047418977975443574,1229.4087512467765,18446.444076849806
5.072536268134067,927.8888351322413,926.7320667218771,0.1778632765271743,0.0,0.21960154649694671,0.17764316602982466,0.04741782459842961,1229.3764042412279,18453.336858168954
5.082541270635318,928.0012079713987,926.8505835808207,0.17800839155228773,0.0,0.21964566050716,0.177598320275459,0.047416668351233045,1229.3443905214076,18460.225193286464
5.092546273136568,928.1129863049306,926.9684061599432,0.17815201594950203,0.0,0.21968930940344186,0.17755393782211823,0.04741550924007728,1229.31269756565,18467.109081098402
5.102551275637818,928.2241843670212,927.0855481825622,0.17829420538247048,0.0,0.2197325104743638,0.1775100013850588,0.04741434727101298,1229.2813133405743,18473.988520677314
5.11255627813907,928.3348161344334,927.2020232597253,0.17843501335919204,0.0,0.2197752803390473,0.177466494348878,0.047413182449918205,1229.2502262788448,18480.86351126851
5.12256128064032,928.4448953302377,927.3178448838321,0.17857449133034936,0.0,0.21981763497769743,0.17742340073698049,0.04741201478249854,1229.2194252579045,18487.734052286465
5.13256628314157,928.5544354275955,927.4330264228751,0.1787126887831291,0.0,0.2198595897607328,0.17738070518244825,0.04741084427428748,1229.1888995796899,18494.60014331126
5.142571285642822,928.663449653592,927.5475811152578,0.17884965333076144,0.0,0.21990115947658734,0.17733839290023948,0.047409670930646894,1229.1586389512663,18501.46178408507
5.152576288144072,928.7719509930984,927.6615220651549,0.1789854307978836,0.0,0.2199423583582151,0.17729644966068386,0.047408494756767526,1229.1286334663703,18508.318974508726
5.162581290645322,928.8799521926492,927.7748622383706,0.17912006530187102,0.0,0.21998320010834344,0.17725486176423005,0.04740731575766972,1229.0988735878245,18515.17171463834
5.172586293146573,928.9874657643245,927.8876144586658,0.17925359933031249,0.0,0.22002369792352885,0.17721361601738986,0.047406133938204156,1229.0693501307835,18522.020004681963
5.182591295647824,929.0945039896284,927.9997914045209,0.1793860738147733,0.0,0.22006386451706053,0.17717269970983593,0.04740494930305268,1229.0400542467821,18528.863844996347
5.192596298149074,929.2010789233564,928.1114056063062,0.17951752820102038,0.0,0.22010371214076532,0.17713210059259668,0.04740376185672923,1229.0109774085543,18535.703236083707
5.202601300650325,929.3072023974414,928.2224694438254,0.1796480005158242,0.0,0.22014325260574993,0.17709180685731526,0.047402571603580836,1228.982111395585,18542.53817858861
5.212606303151576,929.4128860247785,928.3329951442169,0.17977752743055003,0.0,0.2201824973021463,0.17705180711650442,0.047401378547788656,1228.9534482803608,18549.36867329486
5.222611305652826,929.5181412030188,928.4429947801781,0.17990614432162996,0.0,0.22022145721788866,0.1770120903847703,0.04740018269336914,1228.9249804152953,18556.194721122472
5.232616308154077,929.6229791183329,928.5524802684982,0.18003388532810125,0.0,0.22026014295657956,0.17697264606094748,0.04739898404417516,1228.8967004202864,18563.016323124713
5.242621310655328,929.7274107491364,928.6614633688723,0.18016078340633648,0.0,0.22029856475448428,0.17693346391110473,0.04739778260389726,1228.8686011708814,18569.83348048517
5.252626313156578,929.8314469282882,928.7699556771321,0.18028687081025332,0.0,0.22033673249659444,0.1768945340524831,0.047396578509120796,1228.8406756944394,18576.646194514928
5.262631315657829,929.9351000017828,928.8779685261446,0.18041219091497893,0.0,0.22037465571662912,0.17685584695355533,0.047395375701104095,1228.8129146134338,18583.454466658543
5.272636318159079,930.0383814294073,928.9855133488711,0.18053678005947896,0.0,0.22041234359304818,0.1768173934380918,0.04739417629159489,1228.7853100718708,18590.258298503682
5.28264132066033,930.141301550093,929.0926015382017,0.18066066667415567,0.0,0.2204498049954835,0.17677916463861026,0.047392980245135365,1228.7578559238339,18597.057691762002
5.292646323161581,930.2438705133318,929.1992443176127,0.18078387829782874,0.0,0.22048704850337447,0.1767411519777202,0.04739178753934642,1228.7305462161157,18603.85264826345
5.302651325662831,930.3460982775257,929.3054527423621,0.18090644157786565,0.0,0.22052408241831767,0.17670334715577385,0.04739059815261995,1228.70337518819,18610.64316995361
5.312656328164082,930.447994613586,929.4112377001364,0.18102838230805962,0.0,0.2205609147758414,0.17666574213909308,0.04738941206410832,1228.6763372640212,18617.42925889109
5.3226613306653325,930.5495691084802,929.5166099118387,0.18114972546468683,0.0,0.22059755335661455,0.17662832914876142,0.047388229253713776,1228.6494270442695,18624.210917244967
5.332666333166583,930.6508311687282,929.6215799325126,0.18127049524084096,0.0,0.2206340056971208,0.17659110064995084,0.04738704970207805,1228.622639298867,18630.988147292286
5.342671335667834,930.751790023843,929.7261581523803,0.18139071507910295,0.0,0.22067027909981562,0.17655404934176588,0.04738587339057205,1228.5959689599526,18637.76095141562
5.3526763381690845,930.852454729721,929.8303547979962,0.1815104077026732,0.0,0.22070638064280604,0.17651716814756505,0.047384700301285554,1228.569411115143,18644.52933210062
5.362681340670335,930.9528341719781,929.9341799334991,0.18162959514500715,0.0,0.22074231718906515,0.17648045020574704,0.047383530417017136,1228.542961001125,18651.293291933714
5.372686343171585,931.0529370692333,930.0376434619573,0.18174829877804563,0.0,0.22077809539521093,0.17644388886097317,0.04738236372126405,1228.5166139975493,18658.052833599777
5.3826913456728365,931.1527719763416,930.1407551267973,0.18186653933912864,0.0,0.2208137217198757,0.1764074776557993,0.04738120019821235,1228.4903656212148,18664.807959879872
5.392696348174087,931.2523472875741,930.2435245133112,0.18198433695663208,0.0,0.2208492024316787,0.17637121032270356,0.047380039832727046,1228.4642115205245,18671.55867364902
5.402701350675337,931.3516712397455,930.3459610502287,0.1821017111744079,0.0,0.22088454361682786,0.1763350807764863,0.047378882610342364,1228.4381474702009,18678.304977874068
5.412706353176588,931.4507519152927,930.4480740113559,0.18221868097508484,0.0,0.2209197511863669,0.1762990831070239,0.0473777285172522,1228.4121693662496,18685.046875611533
5.422711355677839,931.5495972452986,930.5498725172663,0.18233526480228412,0.0,0.22095483088308582,0.17626321157235922,0.04737657754030059,1228.3862732211555,18691.78437000555
5.432716358179089,931.6482150124689,930.6513655370437,0.18245148058181737,0.0,0.2209897882881149,0.17622746059210853,0.04737542966697235,1228.3604551592994,18698.517464285804
5.44272136068034,931.7466128540582,930.7525618900696,0.18256734574191047,0.0,0.22102462882721674,0.17619182474117095,0.04737428488538386,1228.3347114125872,18705.246161765568
5.452726363181591,931.844798264744,930.8534702478476,0.1826828772324911,0.0,0.2210593577767866,0.17615629874372868,0.047373143184273936,1228.3090383162785,18711.970465839742
5.462731365682841,931.9427785994568,930.9540991358649,0.18279809154362497,0.0,0.22109398026958893,0.17612087746751173,0.047372004552994826,1228.283432305002,18718.690379982927
5.4727363681840915,932.0405610761543,931.0544569354813,0.18291300472307603,0.0,0.22112850130022163,0.1760855559183347,0.04737086898150334,1228.2578899089585,18725.40590774758
5.482741370685343,932.1381527785535,931.1545518858442,0.1830276323931162,0.0,0.22116292573034693,0.17605032923486688,0.04736973646035211,1228.2324077502874,18732.117052762143
5.492746373186593,932.2355606588134,931.2543920858249,0.18314198976656038,0.0,0.22119725829368164,0.17601519268364293,0.04736860698068098,1228.2069825395993,18738.823818729317
5.5027513756878434,932.3327915401686,931.353985495973,0.18325609166208476,0.0,0.22123150360076513,0.17598014165429615,0.04736748053420846,1228.181611072665,18745.526209424217
5.512756378189095,932.4298521195205,931.4533399404854,0.18336995251889168,0.0,0.22126566614352342,0.17594517165499515,0.04736635711322344,1228.1562902272458,18752.224228692747
5.522761380690345,932.5267489699786,931.5524631091852,0.18348358641069293,0.0,0.22129975029962237,0.17591027830809153,0.047365236710576915,1228.1310169600688,18758.91788044984
5.532766383191595,932.6234885433585,931.6513625595095,0.18359700705910864,0.0,0.22133376033663876,0.1758754573459502,0.04736411931967385,1228.1057883039337,18765.60716867788
5.542771385692847,932.7200771726338,931.7500457185012,0.18371022784645452,0.0,0.22136770041604142,0.1758407046069689,0.04736300493446528,1228.080601364944,18772.292097425034
5.552776388194097,932.8165210743443,931.848519884805,0.1838232618280037,0.0,0.22140157459700907,0.1758060160317613,0.04736189354944034,1228.05545331986,18778.972670803712
5.562781390695347,932.9128263509607,931.9467922306621,0.18393612174368967,0.0,0.2214353868400744,0.175771387659514,0.04736078515961864,1228.0303414135674,18785.64889298901
5.572786393196598,933.0089989932069,932.0448698039054,0.18404882002934833,0.0,0.22146914101062523,0.17573681562448631,0.0473596797605426,1228.0052629566474,18792.320768217214
5.582791395697849,933.1050448823354,932.1427595299451,0.1841613688274218,0.0,0.22150284088223768,0.1757022961526778,0.04735857734827002,1227.9802153230635,18798.988300784305
5.592796398199099,933.2009697923677,932.2404682137559,0.1842737799972687,0.0,0.2215364901398878,0.17566782555861776,0.04735747791936671,1227.9551959479313,18805.651495044538
5.60280140070035,933.2967793922853,932.3380025418485,0.1843860651249934,0.0,0.2215700923830132,0.1756334002423046,0.04735638147089925,1227.930202325395,18812.31035540899
5.612806403201601,933.3924792481863,932.4353690842373,0.1844982355328869,0.0,0.2216036511284541,0.17559901668626535,0.04735528800042797,1227.905232006587,18818.96488634423
5.622811405702851,933.488074825399,932.5325742963955,0.18461030228847553,0.0,0.22163716981327208,0.17556467145273777,0.04735419750599985,1227.8802825976707,18825.61509237092
5.632816408204102,933.5835714905545,932.629624521196,0.18472227621317544,0.0,0.22167065179744722,0.17553036118097473,0.04735310998614175,1227.8553517579705,18832.26097806251
5.642821410705353,933.678974513622,932.7265259908411,0.1848341678906071,0.0,0.22170410036646815,0.17549608258465393,0.04735202543985368,1227.830437198175,18838.902548043956
5.652826413206603,933.7742890699052,932.8232848287751,0.18494598767456175,0.0,0.22173751873381534,0.17546183244939653,0.04735094386660217,1227.805536678614,18845.539806990415
5.662831415707854,933.8695202419997,932.9199070515838,0.18505774569665123,0.0,0.22177091004334468,0.1754276076303837,0.04734986526631379,1227.7806480076065,18852.172759626057
5.672836418209104,933.9646730217122,933.0163985708723,0.18516945187362302,0.0,0.22180427737156777,0.17539340505007736,0.047348789639368734,1227.7557690398778,18858.801410722797
5.682841420710355,934.0597523119465,933.1127651951313,0.1852811159144206,0.0,0.22183762372985255,0.17535922169602033,0.04734771698659462,1227.730897675035,18865.425765099175
5.692846423211606,934.1547629285482,933.2090126315793,0.18539274732692587,0.0,0.22187095206652524,0.17532505461873513,0.04734664730926035,1227.7060318561091,18872.045827619124
5.702851425712856,934.2497096021176,933.3051464879882,0.1855043554244501,0.0,0.22190426526889417,0.1752909009297012,0.04734558060907001,1227.6811695681517,18878.6616031909
5.712856428214107,934.3445969797834,933.401172274488,0.18561594933195938,0.0,0.22193756616519056,0.1752567577994144,0.04734451688815707,1227.6563088368903,18885.27309676593
5.722861430715358,934.4394296269447,933.4970954053506,0.18572753799205238,0.0,0.22197085752643278,0.17522262245552397,0.047343456149078485,1227.631447727435,18891.880313337744
5.732866433216608,934.5342120289802,933.5929212007547,0.18583913017073564,0.0,0.22200414206822736,0.17518849218103189,0.047342398394809075,1227.606584343033,18898.483257940912
5.742871435717859,934.6289485929176,933.6886548885257,0.1859507344629206,0.0,0.22203742245248342,0.17515436431257939,0.0473413436287359,1227.5817168238768,18905.081935650018
5.7528764382191095,934.7236436490784,933.7843016058558,0.1860623592977594,0.0,0.22207070128907697,0.17512023623878342,0.04734029185465282,1227.5568433459537,18911.67635157862
5.76288144072036,934.8183014526799,933.8798664010011,0.18617401294372457,0.0,0.22210398113743543,0.17508610539865255,0.04733924307675511,1227.5319621199471,18918.266510878282
5.77288644322161,934.9129261854172,933.9753542349569,0.18628570351355675,0.0,0.22213726450808133,0.17505196928004432,0.04733819729963422,1227.507071390168,18924.85241873759
5.7828914457228615,935.0075219570034,934.0707699831087,0.18639743896896382,0.0,0.22217055386409826,0.17501782541819955,0.04733715452827258,1227.4821694335371,18931.434080381212
5.792896448224112,935.1020928066841,934.1661184368604,0.1865092271251797,0.0,0.2222038516225535,0.17498367139432086,0.047336114768038576,1227.457254558603,18938.011501068962
5.802901450725362,935.1966427047217,934.2614043052414,0.18662107565534464,0.0,0.2222371601558648,0.174949504834206,0.04733507802468162,1227.4323251045926,18944.5846860949
5.8129064532266135,935.2911755538464,934.3566322164862,0.1867329920947074,0.0,0.22227048179311207,0.17491532340693738,0.04733404430432726,1227.4073794405047,18951.153640786444
5.822911455727864,935.3856951906816,934.4518067195945,0.18684498384469528,0.0,0.22230381882130726,0.17488112482361237,0.047333013613472384,1227.38241596423,18957.71837050349
5.832916458229114,935.4802053871383,934.5469322858648,0.18695705817680994,0.0,0.22233717348661103,0.17484690683612744,0.04733198595898067,1227.3574331017087,18964.278880637594
5.8429214607303654,935.5747098517813,934.6420133104059,0.18706922223640027,0.0,0.22237054799550987,0.17481266723600147,0.047330961348077946,1227.3324293061157,18970.835176611115
5.852926463231616,935.6692122311695,934.7370541136256,0.18718148304629034,0.0,0.22240394451594941,0.1747784038532435,0.04732993978834769,1227.3074030570772,18977.38726387642
5.862931465732866,935.7637161111662,934.8320589426932,0.18729384751026934,0.0,0.2224373651784236,0.17474411455526348,0.04732892128772675,1227.2823528599151,18983.935147915076
5.8729364682341165,935.8582250182249,934.9270319729817,0.18740632241647173,0.0,0.22247081207703048,0.17470979724581762,0.047327905854500946,1227.257277244917,18990.4788342371
5.882941470735368,935.9527424206459,935.0219773094831,0.18751891444061589,0.0,0.2225042872704834,0.17467544986399738,0.04732689349730096,1227.232174766638,18997.01832838018
5.892946473236618,936.0472717298119,935.1168989882035,0.18763163014915493,0.0,0.2225377927830953,0.17464107038324606,0.04732588422509815,1227.2070440032176,19003.553635908953
5.9029514757378685,936.1418163013919,935.2118009775329,0.1877444760022833,0.0,0.22257133060571752,0.17460665681042015,0.04732487804720057,1227.1818835557306,19010.084762414255
5.91295647823912,936.2363794365265,935.3066871795932,0.187857458356874,0.0,0.2226049026966574,0.17457220718487249,0.04732387497324902,1227.1566920475539,19016.611713512455
5.92296148074037,936.3309643829828,935.4015614315606,0.18797058346927673,0.0,0.22263851098255266,0.17453771957757844,0.04732287501321315,1227.1314681237598,19023.134494844704
5.9329664832416205,936.4255743362922,935.4964275069708,0.1880838574980636,0.0,0.22267215735922888,0.17450319209027887,0.047321878177387755,1227.1062104505238,19029.653112076336
5.942971485742872,936.5202124408574,935.5912891169946,0.1881972865066291,0.0,0.22270584369251212,0.174468622854668,0.04732088447638901,1227.0809177145636,19036.167570896137
5.952976488244122,936.614881791041,935.6861499116958,0.18831087646573713,0.0,0.22273957181902468,0.17443401003159795,0.04731989392115089,1227.0555886225866,19042.67787701574
5.962981490745372,936.7095854322312,935.7810134812663,0.18842463325598552,0.0,0.22277334354695533,0.1743993518103095,0.047318906522921596,1227.0302219007592,19049.184036168983
5.972986493246623,936.8043263618828,935.8758833572364,0.18853856267015048,0.0,0.22280716065679207,0.1743646464076992,0.04731792229326013,1227.0048162941994,19055.68605411128
5.982991495747874,936.8991075305396,935.9707630136672,0.1886526704154975,0.0,0.2228410249020443,0.17432989206759808,0.04731694124403287,1226.9793705664788,19062.183936619047
5.992996498249124,936.9939318428335,936.0656558683185,0.1887669621159836,0.0,0.2228749380099314,0.17429508706008334,0.0473159633874103,1226.9538834991438,19068.677689489086
6.003001500750375,937.0888021584625,936.1605652837975,0.18888144331440382,0.0,0.22290890168205355,0.17426022968080804,0.0473149887358637,1226.928353891255,19075.167318538013
6.013006503251626,937.1837212931505,936.2554945686843,0.18899611947446218,0.0,0.22294291759503915,0.17422531825035392,0.04731401730216204,1226.9027805589385,19081.65282960172
6.023011505752876,937.2786920195842,936.3504469786387,0.18911099598277564,0.0,0.2229769874011717,0.17419035111360529,0.0473130490993688,1226.8771623349528,19088.13422853478
6.033016508254127,937.3737170683332,936.445425717485,0.1892260781508181,0.0,0.22301111272899726,0.1741553266391417,0.047312084140839046,1226.8514980682692,19094.611521209947
6.043021510755377,937.4687991287482,936.5404339382776,0.18934137121679304,0.0,0.22304529518391017,0.17412024321865263,0.04731112244021631,1226.8257866236654,19101.08471351763
6.053026513256628,937.5639408498399,936.6354747443448,0.18945688034744604,0.0,0.22307953634872005,0.17408509926637114,0.047310164011429845,1226.8000268813375,19107.553811365353
6.063031515757879,937.6591448411442,936.7305511903149,0.18957261063984132,0.0,0.22311383778420704,0.17404989321851866,0.04730920886869165,1226.7742177365126,19114.01882067726
6.073036518259129,937.7544136735646,936.825666283123,0.18968856712306237,0.0,0.22314820102965405,0.1740146235327734,0.0473082570264938,1226.748358099084,19120.479747393656
6.08304152076038,937.8497498801972,936.9208229829952,0.18980475475985664,0.0,0.22318262760336102,0.1739792886877563,0.047307308499605634,1226.7224468932538,19126.936597470496
6.093046523261631,937.9451559571429,937.0160242044199,0.18992117844826076,0.0,0.22321711900315333,0.17394388718252304,0.04730636330307121,1226.696483057183,19133.389376878902
6.103051525762881,938.0406343642951,937.1112728170937,0.19003784302313068,0.0,0.22325167670686044,0.17390841753608582,0.0473054214522066,1226.6704655426615,19139.838091604768
6.113056528264132,938.1361875261169,937.206571646854,0.1901547532576594,0.0,0.22328630217279077,0.17387287828693856,0.04730448296259743,1226.644393314778,19146.282747648245
6.123061530765383,938.231817832402,937.3019234765926,0.1902719138648531,0.0,0.22332099684019355,0.17383726799259583,0.047303547850096384,1226.618265351603,19152.723351023335
6.133066533266633,938.3275276390143,937.39733104715,0.1903893294989323,0.0,0.22335576212969704,0.17380158522915445,0.04730261613082076,1226.592080643886,19159.15990775748
6.143071535767883,938.4233192686175,937.4927970581928,0.19050700475672072,0.0,0.22339059944374334,0.17376582859085948,0.047301687821150115,1226.5658381947544,19165.592423891092
6.153076538269135,938.5191950113859,937.5883241690744,0.19062494417897485,0.0,0.22342551016700424,0.1737299966896882,0.04730076293772398,1226.5395370194276,19172.02090547721
6.163081540770385,938.6151571257031,937.68391499968,0.19074315225169722,0.0,0.2234604956667923,0.1736940881549399,0.04729984149743951,1226.5131761449315,19178.445358581066
6.173086543271635,938.7112078388415,937.7795721312515,0.19086163340737144,0.0,0.22349555729344722,0.1736581016328492,0.047298923517449395,1226.4867546098335,19184.865789279676
6.1830915457728866,938.8073493476344,937.8752981071999,0.1909803920262235,0.0,0.22353069638073075,0.1736220357861919,0.04729800901515962,1226.4602714639693,19191.282203661514
6.193096548274137,938.9035838191287,937.9710954339007,0.1910994324373979,0.0,0.2235659142461946,0.17358588929391722,0.047297098008227366,1226.433725768188,19197.694607826103
6.203101550775387,938.9999133912246,938.0669665814715,0.19121875892011309,0.0,0.22360121219154216,0.17354966085078616,0.04729619051455897,1226.407116594104,19204.10300788365
6.2131065532766385,939.0963401733032,938.1629139845362,0.19133837570479467,0.0,0.2236365915029832,0.17351334916701736,0.0472952865523079,1226.3804430238517,19210.507409954706
6.223111555777889,939.1928662468417,938.2589400429736,0.1914582869741726,0.0,0.22367205345157723,0.17347695296794383,0.047294386139872774,1226.3537041498478,19216.907820169818
6.233116558279139,939.2894936660138,938.3550471226513,0.19157849686435263,0.0,0.22370759929356887,0.1734404709936779,0.047293489295895476,1226.3268990745596,19223.30424466919
6.24312156078039,939.3862244582772,938.451237556144,0.19169900946584204,0.0,0.22374323027070903,0.17340390199879024,0.04729259603925923,1226.300026910285,19229.696689602344
6.253126563281641,939.4830606249523,938.5475136434385,0.19181982882457943,0.0,0.22377894761057712,0.173367244751988,0.047291706389086814,1226.2730867789287,19236.0851611278
6.263131565782891,939.5800041417854,938.6438776526244,0.19194095894290658,0.0,0.22381475252688537,0.17333049803581055,0.04729082036473874,1226.2460778117934,19242.469665412773
6.273136568284142,939.6770569595022,938.7403318205705,0.19206240378054115,0.0,0.22385064621978323,0.17329366064632548,0.04728993798581151,1226.218999149368,19248.85020863285
6.283141570785393,939.7742210043475,938.8368783535886,0.19218416725549556,0.0,0.22388662987614513,0.17325673139284103,0.04728905927213594,1226.19184994113,19255.2267969717
6.293146573286643,939.8714981786179,938.9335194280828,0.1923062532450097,0.0,0.22392270466986244,0.17321970909761433,0.04728818424377543,1226.1646293453446,19261.59943662076
6.3031515757878935,939.9688903611792,939.0302571911866,0.19242866558642907,0.0,0.22395887176211812,0.17318259259557683,0.0472873129210244,1226.1373365288744,19267.968133778984
6.313156578289145,940.0663994079741,939.1270937613868,0.19255140807806595,0.0,0.22399513230165674,0.17314538073406477,0.04728644532440665,1226.1099706669925,19274.33289465253
6.323161580790395,940.1640271525221,939.2240312291356,0.19267448448006358,0.0,0.2240314874250547,0.17310807237254897,0.04728558147467386,1226.0825309431978,19280.693725454483
6.3331665832916455,940.2617754064061,939.3210716574494,0.19279789851520288,0.0,0.22406793825697277,0.17307066638238236,0.04728472139280404,1226.055016549039,19287.050632404626
6.343171585792896,940.3596459597512,939.4182170824972,0.19292165386973337,0.0,0.2241044859104164,0.1730331616465403,0.04728386510000005,1226.0274266839363,19293.403621729143
6.353176588294147,940.457640581692,939.5154695141753,0.19304575419413997,0.0,0.22414113148697562,0.17299555705938038,0.04728301261768814,1225.999760555014,19299.752699660377
6.3631815907953975,940.5557610208314,939.6128309366711,0.19317020310392594,0.0,0.22417787607707013,0.17295785152639787,0.04728216396751664,1225.9720173769335,19306.09787243659
6.373186593296648,940.6540090056886,939.7103033090165,0.1932950041803517,0.0,0.22421472076018056,0.17292004396399432,0.047281319171354426,1225.9441963717325,19312.439146301684
6.383191595797899,940.7523862451405,939.8078885656286,0.19342016097118123,0.0,0.2242516666050823,0.17288213329924426,0.047280478251289726,1225.9162967686636,19318.77652750502
6.393196598299149,940.8508944288519,939.9055886168412,0.19354567699139488,0.0,0.22428871467006836,0.1728441184696722,0.04727964122962871,1225.888317804041,19325.110022301134
6.4032016008004,940.9495352276987,940.0034053494252,0.1936715557238985,0.0,0.22432586600317145,0.1728059984230308,0.047278808128894276,1225.8602587210864,19331.439636949548
6.413206603301651,941.0483102941813,940.1013406270973,0.19379780062020255,0.0,0.2243631216423767,0.1727677721170884,0.04727797897182475,1225.8321187697843,19337.76537771452
6.423211605802901,941.1472212628292,940.1993962910201,0.19392441510109643,0.0,0.22440048261583243,0.17272943851941835,0.04727715378137271,1225.8038972067327,19344.087250864846
6.433216608304152,941.2462697506006,940.2975741602922,0.19405140255731482,0.0,0.22443794994205898,0.17269099660719026,0.04727633258070378,1225.775593295003,19350.405262673656
6.443221610805402,941.345457357271,940.3958760324274,0.1941787663501793,0.0,0.22447552463014928,0.1726524453669696,0.04727551539319546,1225.7472063039986,19356.719419418187
6.453226613306653,941.4447856658142,940.4943036838253,0.19430650981222372,0.0,0.22451320767996463,0.17261378379452202,0.047274702242436024,1225.7187355093215,19363.029727379602
6.463231615807904,941.5442562427758,940.592858870231,0.19443463624780885,0.0,0.2245510000823274,0.1725750108946211,0.04727389315222342,1225.6901801926388,19369.336192842784
6.473236618309154,941.6438706386426,940.6915433271887,0.19456314893374332,0.0,0.2245889028192148,0.17253612568085414,0.04727308814656411,1225.661539641548,19375.638822096138
6.483241620810405,941.7436303882007,940.7903587704835,0.1946920511198725,0.0,0.22462691686394343,0.17249712717543822,0.04727228724967218,1225.632813149451,19381.937621431432
6.493246623311656,941.8435370108872,940.8893068965756,0.1948213460296506,0.0,0.22466504318134833,0.17245801440904102,0.04727149048596815,1225.6040000154298,19388.232597143597
6.503251625812906,941.9435920111365,940.9883893830254,0.19495103686072193,0.0,0.22470328272796478,0.17241878642059924,0.04727069788007806,1225.5750995441203,19394.52375553054
6.513256628314157,942.0437968787194,941.0876078889105,0.1950811267854766,0.0,0.22474163645220213,0.17237944225714474,0.047269909456832515,1225.5461110455942,19400.81110289298
6.523261630815408,942.1441530890756,941.1869640552362,0.19521161895160732,0.0,0.22478010529451814,0.17233998097363065,0.04726912524126567,1225.517033835236,19407.094645534296
6.533266633316658,942.2446621036379,941.2864595053334,0.19534251648263087,0.0,0.22481869018758188,0.1723004016327681,0.047268345258614355,1225.4878672336317,19413.374389760345
6.543271635817908,942.3453253701533,941.3860958452536,0.19547382247843811,0.0,0.22485739205644595,0.17226070330485443,0.047267569534317155,1225.458610566452,19419.650341879304
6.55327663831916,942.4461443229958,941.4858746641543,0.19560554001579825,0.0,0.22489621181870423,0.17222088506761546,0.04726679809401351,1225.4292631643386,19425.922508201507
6.56328164082041,942.5471203834735,941.5857975346751,0.19573767214887888,0.0,0.22493515038465442,0.17218094600604295,0.0472660309635429,1225.3998243627964,19432.19089503931
6.57328664332166,942.6482549601311,941.6858660133097,0.19587022190974185,0.0,0.22497420865745316,0.17214088521223972,0.04726526816894395,1225.370293502084,19438.45550870693
6.583291645822912,942.7495494490437,941.7860816407677,0.19600319230883287,0.0,0.2250133875332693,0.17210070178526632,0.047264509736453665,1225.3406699271077,19444.716355520304
6.593296648324162,942.8510052341096,941.8864459423329,0.19613658633547704,0.0,0.22505268790143854,0.17206039483098665,0.04726375569250662,1225.310952987316,19450.973441796945
6.603301650825412,942.9526236873332,941.9869604282098,0.19627040695834336,0.0,0.2250921106446089,0.1720199634619222,0.047263006063734146,1225.281142036598,19457.226773855815
6.613306653326664,943.054406169104,942.087626593868,0.19640465712591215,0.0,0.22513165663888693,0.17197940679710647,0.04726226087696361,1225.2512364331828,19463.47635801718
6.623311655827914,943.156354028473,942.1884459203776,0.1965393397669433,0.0,0.2251713267539838,0.17193872396193843,0.04726152015921768,1225.221235539538,19469.72220060246
6.633316658329164,943.2584686034189,942.2894198747387,0.19667445779092127,0.0,0.22521112185335473,0.17189791408804342,0.047260783937713595,1225.1911387222733,19475.964307934166
6.643321660830415,943.360751221114,942.3905499102044,0.19681001408850157,0.0,0.22525104279433836,0.17185697631313387,0.04726005223986243,1225.1609453520457,19482.202686335702
6.653326663331666,943.4632031981827,942.4918374665983,0.19694601153194546,0.0,0.22529109042829268,0.17181590978087324,0.04725932509326848,1225.1306548034636,19488.43734213129
6.663331665832916,943.565825840957,942.5932839706256,0.19708245297556515,0.0,0.22533126560073416,0.17177471364073718,0.04725860252572855,1225.1002664549906,19494.668281645834
6.673336668334167,943.6686204457234,942.6948908361773,0.19721934125611673,0.0,0.22537156915146053,0.1717333870478905,0.047257884565231285,1225.069779688863,19500.89551120482
6.683341670835418,943.7715882989721,942.7966594646306,0.19735667919325597,0.0,0.2254120019146932,0.17169192916304518,0.0472571712399566,1225.0391938909875,19507.11903713419
6.693346673336668,943.874730677635,942.8985912451426,0.19749446958991965,0.0,0.2254525647191964,0.1716503391523409,0.04725646257827498,1225.008508450863,19513.33886576024
6.703351675837919,943.9780488493218,943.0006875549374,0.19763271523273673,0.0,0.22549325838840573,0.17160861618721684,0.04725575860874696,1224.9777227614875,19519.55500340952
6.71335667833917,944.0815440725542,943.1029497595902,0.19777141889243371,0.0,0.22553408374055467,0.17156675944428507,0.047255059360122476,1224.9468362192738,19525.767456408717
6.72336168084042,944.1852175969933,943.2053792133053,0.1979105833242282,0.0,0.22557504158879743,0.17152476810520761,0.047254364861340326,1224.9158482239627,19531.97623108458
6.7333666833416705,944.2890706636621,943.3079772591864,0.198050211268199,0.0,0.22561613274132492,0.17148264135658084,0.0472536751415276,1224.8847581785435,19538.18133376379
6.743371685842921,944.3931045051675,943.4107452295061,0.19819030544968327,0.0,0.2256573580014883,0.17144037838981163,0.04725299022999911,1224.8535654891687,19544.3827707729
6.753376688344172,944.497320345915,943.5136844459681,0.19833086857964646,0.0,0.2256987181679148,0.17139797840100168,0.04725231015625694,1224.8222695650722,19550.58054843823
6.7633816908454225,944.6017194023215,943.6167962199631,0.1984719033550463,0.0,0.22574021403462136,0.17135544059083405,0.04725163494998983,1224.7908698184933,19556.774673085754
6.773386693346673,944.7063028830235,943.720081852824,0.1986134124592038,0.0,0.22578184639113028,0.17131276416445732,0.04725096464107273,1224.7593656645943,19562.965151041055
6.783391695847924,944.8110719890835,943.8235426360735,0.19875539856216345,0.0,0.22582361602258186,0.17126994833137302,0.047250299259566295,1224.727756521383,19569.15198862923
6.7933966983491745,944.91602791419,943.9271798516668,0.19889786432103826,0.0,0.22586552370984195,0.1712269923053281,0.047249638835716395,1224.6960418096396,19575.335192174774
6.803401700850425,945.0211718448555,944.0309947722333,0.1990408123803717,0.0,0.2259075702296151,0.17118389530420203,0.047248983399953676,1224.664220952836,19581.51476800155
6.813406703351676,945.1265049606122,944.1349886613096,0.19918424537246857,0.0,0.22594975635454756,0.17114065654990324,0.047248332982893056,1224.6322933770668,19587.690722432682
6.8234117058529264,945.2320284342019,944.2391627735713,0.19932816591773925,0.0,0.22599208285333502,0.1710972752682622,0.04724768761533332,1224.6002585109732,19593.863061790493
6.833416708354177,945.3377434317651,944.3435183550604,0.1994725766250403,0.0,0.22603455049082857,0.17105375068892467,0.047247047328256686,1224.568115785669,19600.031792396432
