z,T,t,fs,fl,x,y,w,rhob,p
0.0,629.9365139290791,505.0,0.0,0.0,0.1611547775933398,0.23633771274373458,0.04787216638133422,1268.0,14330.0
0.010005002501250625,638.1362274371475,517.5681450567998,2.675062986110323e-05,0.0,0.16116308086271267,0.2363294094741813,0.04787216638104915,1267.9942154436424,14341.093863295504
0.02001000500250125,646.0314824660364,529.6516503112457,5.740985873288624e-05,0.0,0.16117259734252082,0.23631989299397418,0.04787216638041866,1267.9875856916453,14352.404589127187
0.030015007503751877,653.6362232238193,541.2740828275373,9.214500935832039e-05,0.0,0.16118337896866405,0.2363091113670035,0.047872166379111084,1267.9800745619564,14363.924442387426
0.0400200100050025,660.9635587495035,552.4574777886343,0.00013109877271774267,0.0,0.16119547003124313,0.23629702030280356,0.047872166376549646,1267.971651198762,14375.645923983895
0.05002501250625312,668.0258281711743,563.2224702690759,0.00017439050648575813,0.0,0.1612089075774784,0.23628358275355044,0.04787216637178069,1267.962289791635,14387.561765776103
0.060030015007503754,674.8346596423153,573.5884127651283,0.00022211774253188488,0.0,0.16122372187947523,0.23626876844618483,0.047872166363296526,1267.9519692494566,14399.664925247693
0.07003501750875438,681.4010236761287,583.573480326949,0.0002743578094971742,0.0,0.16123993693766273,0.2362525533788285,0.04787216634880716,1267.9406728494246,14411.948579995598
0.080040020010005,687.735281494898,593.1947648420321,0.0003311694993875226,0.0,0.16125757099784715,0.23623491930355162,0.04787216632495695,1267.9283878765145,14424.406122105664
0.09004502251125562,693.8472289316622,602.4683597898219,0.0003925947260486894,0.0,0.16127663706569587,0.23621585321167424,0.047872166286985034,1267.9151052646637,14437.031152473488
0.10005002501250625,699.7461364587404,611.4094367796594,0.0004586601413978861,0.0,0.16129714340806064,0.23619534683219312,0.04787216622833098,1267.9008192470612,14449.817475075808
0.11005502751375687,705.4407856580865,620.0323146704602,0.000529378680921782,0.0,0.16131909403230218,0.2361733961521763,0.04787216614019072,1267.8855270217064,14462.759091264119
0.12006003001500751,710.9395025189799,628.3505221528567,0.0006047510227945589,0.0,0.16134248913876506,0.23615000096398012,0.04787216601102958,1267.8692284356205,14475.85019410477
0.13006503251625812,716.2501879035544,636.3768545573486,0.0006847669516825181,0.0,0.16136732554363903,0.23612516444205903,0.04787216582606291,1267.8519256896543,14489.08516278215
0.14007003501750875,721.3803454669164,644.1234255280077,0.0007694066228544836,0.0,0.16139359707085804,0.23609889275072501,0.047872165566715974,1267.8336230648392,14502.458557082387
0.15007503751875936,726.3371072801654,651.6017141103179,0.0008586417257647981,0.0,0.16142129491278973,0.23607119468311166,0.04787216521007681,1267.814326670475,14515.965111973945
0.16008004002001,731.1272573702776,658.8226077227748,0.0009524365488375954,0.0,0.16145040796026464,0.23604208133080332,0.047872164728355975,1267.7940442135816,14529.599732301858
0.17008504252126064,735.7572534370083,665.7964415421393,0.0010507489502748846,0.0,0.16148092310345552,0.23601156578262789,0.04787216408836882,1267.7727847886922,14543.357487572812
0.18009004502251125,740.2332468641454,672.533034575293,0.0011535312382694883,0.0,0.16151282550466853,0.23597966285156105,0.047872163251053854,1267.7505586872464,14557.233606864822
0.19009504752376188,744.5611011865566,679.0417227551818,0.0012607309663208721,0.0,0.16154609884482624,0.23594638882796967,0.047872162171040386,1267.7273772253782,14571.223473865557
0.2001000500250125,748.7464091650979,685.3313893719308,0.001372291649740952,0.0,0.1615807255455424,0.23591176125730193,0.047872160796277374,1267.7032525887728,14585.32262203673
0.21010505252626313,752.7945085952531,691.4104930975179,0.0014881534092934892,0.0,0.16161668696864268,0.2358757987403773,0.04787215906773365,1267.6781976933216,14599.526729906122
0.22011005502751374,756.7104969595075,697.2870938288011,0.0016082535478186145,0.0,0.16165396359495401,0.2358385207544573,0.04787215691917756,1267.652226060313,14613.831616489571
0.23011505752876438,760.4992450156867,702.9688765382571,0.0017325270655003976,0.0,0.16169253518412452,0.23579994749334032,0.047872154277041765,1267.6253517049365,14628.233236848759
0.24012006003001501,764.165409451978,708.4631733797983,0.0018609071195504077,0.0,0.1617323809172698,0.23576009972468678,0.047872151060378274,1267.597589036854,14642.727677759513
0.25012506253126565,767.7134446557714,713.7769841542414,0.00199332543296972,0.0,0.16177347952389373,0.23571899866312748,0.04787214718090451,1267.5689527718382,14657.311153509143
0.26013006503251623,771.1476136679116,718.9169952763831,0.0021297126572368767,0.0,0.16181580939458767,0.23567666585765057,0.04787214254313964,1267.5394578534165,14671.980001823425
0.27013506753376687,774.4719983974196,723.8895973878222,0.0022699986934386217,0.0,0.16185934868090823,0.23563312309186604,0.04787213704462894,1267.509119383554,14686.730679916085
0.2801400700350175,777.6905091568489,728.7009017322827,0.0024141129759172267,0.0,0.16190407538369403,0.23558839229588385,0.047872130576252364,1267.4779525614879,14701.559760658565
0.29014507253626814,780.8068935712927,733.3567553960926,0.002561984722170219,0.0,0.16194996743097656,0.23554249546864786,0.04787212302261106,1267.4459726298987,14716.463928868612
0.3001500750375187,783.8247449033954,737.8627554971292,0.002713543152444841,0.0,0.16199700274654683,0.23549545460965907,0.047872114262485214,1267.413194827679,14731.439977720254
0.31015507753876936,786.7475098657544,742.2242624505034,0.002868717682106023,0.0,0.16204515931012714,0.23544729165913356,0.047872104169355875,1267.3796343486215,14746.4848052537
0.32016008004002,789.5784959414467,746.4464123554985,0.003027438089531685,0.0,0.16209441520999485,0.23539802844574378,0.047872092611981214,1267.3453063054283,14761.595410995542
0.33016508254127064,792.3208782451778,750.5341285663256,0.0031896346621449324,0.0,0.16214474868885917,0.23534768664113506,0.04787207945501779,1267.3102256984746,14776.768892690367
0.3401700850425213,794.9777059655078,754.4921325207564,0.003355238322895385,0.0,0.16219613818370057,0.23529628772050118,0.04787206455967761,1267.27440738882,14792.002443136287
0.35017508754377186,797.5519084190863,758.3249538842186,0.00352418073927095,0.0,0.16224856236021074,0.23524385292857747,0.04787204778441102,1267.2378660750094,14807.293347121396
0.3601800900450225,800.0463007443508,762.0369400604187,0.003696394416722752,0.0,0.1623020001424086,0.23519040325046703,0.04787202898560636,1267.2006162732544,14822.63897845895
0.37018509254627313,802.4635892551186,765.632265107557,0.0038718127782538915,0.0,0.16235643073796763,0.23513595938676057,0.04787200801829675,1267.1626723006116,14838.036797122862
0.38019009504752377,804.8063764955822,769.114938131958,0.004050370231530266,0.0,0.16241183365966952,0.23508054173252987,0.047871984736865957,1267.1240482608573,14853.484346466455
0.39019509754877435,807.07716600711,772.4888111806293,0.004232002224931708,0.0,0.1624681887434153,0.2350241703597566,0.04787195899574453,1267.0847580327516,14868.97925053011
0.400200100050025,809.2783668212156,775.7575866602349,0.00441664529384755,0.0,0.16252547616319377,0.23496686500279398,0.04787193065008873,1267.044815260395,14884.519211439936
0.4102051025512756,811.4122977022162,778.9248243239509,0.004604237098275255,0.0,0.1625836764433291,0.23490864504653378,0.04787189955643612,1267.004233345462,14900.102006890635
0.42021010505252626,813.4811911565047,781.9939478567286,0.004794716452706291,0.0,0.16264277046830838,0.23484952951697494,0.047871865573331486,1266.9630254410806,14915.725487709875
0.4302151075537769,815.4871972235482,784.9682510862049,0.004988023349188277,0.0,0.16270273949046019,0.23478953707391934,0.04787182856191849,1266.9212044471708,14931.387575502014
0.4402201100550275,817.43238705884,787.8509038384893,0.005184098974424798,0.0,0.1627635651357489,0.23472868600552743,0.047871788386492864,1266.8787830070494,14947.086260372269
0.4502251125562781,819.3187563340565,790.6449574813121,0.005382885721435599,0.0,0.16282522940784327,0.23466699422457352,0.04787174491501357,1266.8357735051889,14962.819598718459
0.46023011505752875,821.1482284606509,793.3533501667577,0.0055843271964753595,0.0,0.16288771469067317,0.2346044792661837,0.04787169801956927,1266.792188065979,14978.585711092774
0.4702351175587794,822.9226576424646,795.9789117846593,0.005788368221882658,0.0,0.16295100374968316,0.23454115828684866,0.04787164757679876,1266.74803855334,14994.382780136484
0.48024012006003003,824.6438317719228,798.5243686515915,0.005994954835306369,0.0,0.1630150797319194,0.23447704806457295,0.047871593468264424,1266.7033365710954,15010.209048581786
0.4902451225612806,826.3134751795927,800.9923479526478,0.006204034285760858,0.0,0.1630799261650906,0.23441216500002035,0.04787153558077822,1266.6580934640037,15026.06281731851
0.5002501250625313,827.9332512458524,803.3853819514015,0.0064155550269193755,0.0,0.16314552695573017,0.23434652511852833,0.04787147380668045,1266.6123203193615,15041.942443523792
0.5102551275637819,829.5047648799427,805.7059119778783,0.006629466708074425,0.0,0.1632118663865933,0.23428014407285783,0.04787140804407275,1266.5660279690865,15057.846338855612
0.5202601300650325,831.0295648822329,807.9562922206284,0.006845720162922191,0.0,0.1632789291133389,0.23421303714663055,0.04787133819700544,1266.5192269922454,15073.772967700603
0.5302651325662832,832.5091461941909,810.1387933311495,0.00706426739649796,0.0,0.16334670016059855,0.23414521925835066,0.04787126417562128,1266.4719277179572,15089.72084547658
0.5402701350675337,833.9449520372951,812.2556058438246,0.007285061570641233,0.0,0.1634151649175535,0.23407670496589256,0.04787118589625807,1266.4241402285943,15105.688536993117
0.5502751375687843,835.338375950397,814.3088434272514,0.007508056988154483,0.0,0.16348430913307124,0.234007508471405,0.04787110328151223,1266.3758743632404,15121.67465486534
0.560280140070035,836.6907637314447,816.3005459771518,0.0077332090758569835,0.0,0.16355411891046678,0.23393764362656636,0.04787101626026573,1266.3271397213723,15137.677857979086
0.5702851425712856,838.0034152888685,818.2326825599955,0.007960474366718009,0.0,0.1636245807019487,0.23386712393813447,0.047870924767679006,1266.2779456667172,15153.696850005876
0.5802901450725363,839.2775864054047,820.1071542125135,0.008189810481289342,0.0,0.16369568130282006,0.23379596257372146,0.047870828745152964,1266.2283013312494,15169.73037796831
0.5902951475737869,840.5144904244643,821.9257966134943,0.008421176108448216,0.0,0.16376740784544,0.23372417236778995,0.04787072814026195,1266.1782156193144,15185.777230849024
0.6003001500750375,841.7152998627527,823.6903826342707,0.008654530985585104,0.0,0.16383974779298976,0.23365176582782793,0.04787062290666071,1266.1276972118656,15201.836238242271
0.6103051525762881,842.8811479482662,825.4026247672443,0.00888983587847801,0.0,0.16391268893312197,0.2335787551406264,0.04787051300396853,1266.0767545707502,15217.906269051584
0.6203101550775387,844.0131300901278,827.0641774430185,0.009127052560890567,0.0,0.16398621937150576,0.23350515217864795,0.04787039839763311,1266.025395943047,15233.98623022962
0.6303151575787894,845.1123052839937,828.6766392424611,0.009366143793979,0.0,0.16406032752529737,0.23343096850645872,0.04787027905877657,1265.9736293654355,15250.075065558627
0.64032016008004,846.1796974563621,830.2415550093341,0.009607073305587459,0.0,0.16413500211656265,0.2333562153871991,0.04787015496402638,1265.9214626685796,15266.171754470273
0.6503251625812906,847.2162967492872,831.7604178662964,0.009849805769548563,0.0,0.16421023216568986,0.23328090378905567,0.047870026095333376,1265.8689034815034,15282.275310905314
0.6603301650825413,848.2230607519989,833.2346711447001,0.010094306784951584,0.0,0.1642860069847833,0.2332050443917455,0.04786989243977898,1265.8159592359696,15298.384782208204
0.6703351675837919,849.2009156827133,834.6657102335935,0.010340542855411064,0.0,0.16436231617104863,0.23312864759300314,0.04786975398937339,1265.7626371708513,15314.499248054897
0.6803401700850426,850.1507575188089,836.0548843455434,0.010588481368510035,0.0,0.1644391496002277,0.23305172351501438,0.04786961074084745,1265.7089443364628,15330.617819417304
0.6903451725862931,851.0734530798937,837.4034982065548,0.010838090575401577,0.0,0.16451649742007757,0.23297428201080217,0.04786946269543966,1265.6548875988528,15346.739637561112
0.7003501750875437,851.9698410662234,838.7128136741751,0.011089339570599844,0.0,0.16459435004390602,0.23289633267055432,0.04786930985867992,1265.6004736440582,15362.863873075818
0.7103551775887944,852.8407330546289,839.9840512873874,0.01134219827199151,0.0,0.1646726981441741,0.23281788482788324,0.047869152240171665,1265.5457089823042,15378.989724935911
0.720360180090045,853.6869144527993,841.2183917498658,0.011596637401131676,0.0,0.16475153264618636,0.2327389475659974,0.04786898985337363,1265.490599952147,15395.116419593483
0.7303651825912957,854.5091454160989,842.4169773532276,0.011852628463778462,0.0,0.16483084472185655,0.2326595297237982,0.04786882271538231,1265.4351527245628,15411.243210098959
0.7403701850925463,855.3081617298938,843.5809133450429,0.012110143730646169,0.0,0.16491062578354201,0.23257963990190883,0.04786865084671607,1265.3793733069915,15427.369375247708
0.7503751875937968,856.0846756552694,844.7112692385953,0.012369156218723714,0.0,0.16499086747805664,0.23249928646852652,0.04786847427110221,1265.3232675472602,15443.494218755792
0.7603801900950475,856.8393767482476,845.8090800793336,0.012629639729025683,0.0,0.1650715616982037,0.2324184775477577,0.047868293015267835,1265.2668411253044,15459.617068462208
0.7703851925962981,857.5729341658068,846.8753498244237,0.012891581210662712,0.0,0.16515270442035876,0.23233721718190406,0.04786810710873337,1265.210096879448,15475.737275564936
0.7803901950975487,858.2861333823971,847.9112461731452,0.013156086107836522,0.0,0.16523463880014277,0.23225516223552523,0.04786791658339471,1265.1527957859396,15491.854214973158
0.7903951975987994,858.9798758209212,848.9180992462018,0.013425422397959815,0.0,0.16531806884048697,0.23217160872623438,0.047867721471722725,1265.0944474351636,15507.96729248602
0.80040020010005,859.6543890300412,849.8962773654982,0.013696553562439626,0.0,0.16540205204879607,0.23208749916897667,0.04786752180904091,1265.035708463285,15524.07593141439
0.8104052026013007,860.3102189779606,850.8466017287033,0.013969124750411798,0.0,0.16548647831585728,0.2320029436973924,0.04786731763395628,1264.9766556244404,15540.179569196263
0.8204102051025512,860.947934233145,851.7699241602731,0.014243111245281135,0.0,0.16557134000670629,0.23191794997208295,0.047867108986986553,1264.9172942855823,15556.277662852537
0.8304152076038018,861.5680858558927,852.6670699846723,0.01451849166512962,0.0,0.1656566305229234,0.23183252461817316,0.047866895910337555,1264.8576290934989,15572.369688618128
0.8404202101050525,862.1712076565714,853.5388384593721,0.014795245240342403,0.0,0.16574234345747405,0.2317466740703683,0.04786667844774044,1264.79766456341,15588.455141328328
0.8504252126063031,862.7578167666225,854.3860036506404,0.015073351777617375,0.0,0.1658284725834002,0.2316604045841639,0.04786645664429615,1264.7374050866663,15604.533533822789
0.8604302151075538,863.3284141903914,855.20931527894,0.015352791644831833,0.0,0.16591501184899177,0.23157372224058048,0.04786623054632689,1264.6768549339386,15620.604396369154
0.8704352176088044,863.8834853369016,856.0094995329167,0.015633545756423717,0.0,0.1660019553731245,0.23148663295073613,0.04786600020123443,1264.6160182583033,15636.667276104938
0.880440220110055,864.4235005339872,856.7872598557062,0.015915595559050047,0.0,0.16608929744068907,0.23139914246033175,0.047865765657365215,1264.554899098267,15652.72173649533
0.8904452226113057,864.9489155227965,857.5432777006373,0.016198923017615295,0.0,0.16617703249814186,0.23131125635401978,0.047865526963882396,1264.4935013807192,15668.76735680936
0.9004502251125562,865.4601719343625,858.2782132589734,0.016483510601634246,0.0,0.16626515514916496,0.23122298005966677,0.04786528417064449,1264.4318289238142,15684.80373161289
0.9104552276138069,865.9576977491301,858.9927061611005,0.016769341271919647,0.0,0.16635366015043304,0.2311343188525144,0.04786503732809066,1264.369885439787,15700.830470277735
0.9204602301150575,866.4419077401351,859.6873761522742,0.01705639846759029,0.0,0.1664425424074854,0.23104527785923873,0.04786478648713234,1264.3076745377023,15716.847196506382
0.9304652326163081,866.913203900063,860.3628237433356,0.017344666093410708,0.0,0.16653179697070655,0.23095586206190508,0.04786453169905123,1264.2451997261376,15732.853547872266
0.9404702351175588,867.3719758531863,861.0196308379535,0.017634128507444603,0.0,0.1666214190314091,0.23086607630182418,0.04786427301540325,1264.1824644157991,15748.849175374784
0.9504752376188094,867.8186012543352,861.6583613396874,0.01792477050895891,0.0,0.1667114039180003,0.23077592528332885,0.04786401048792838,1264.119471922089,15764.833743006777
0.9604802401200601,868.2534461731575,862.2795617362973,0.018216577326657917,0.0,0.1668017470922555,0.23068541357744687,0.047863744168466234,1264.0562254676015,15780.806927336675
0.9704852426213106,868.6768654648943,862.8837616631935,0.018509534607217555,0.0,0.1668924441456901,0.23059454562547937,0.04786347410887715,1263.9927281845617,15796.76841710404
0.9804902451225612,869.0892031283498,863.4714744470874,0.018803628404108538,0.0,0.16698349079602542,0.23050332574248797,0.0478632003609685,1263.9289831171984,15812.717912827931
0.9904952476238119,869.4907926515527,864.0431976306331,0.019098845166702714,0.0,0.16707488288374736,0.23041175812069303,0.04786292297642607,1263.8649932240662,15828.655126427713
1.0005002501250626,869.8819573452871,864.5994134783659,0.019395171729668242,0.0,0.16716661636875854,0.23031984683278095,0.04786264200675042,1263.8007613802997,15844.57978085619
1.0105052526263132,870.2630106650599,865.1405894648251,0.01969259530264391,0.0,0.16725868732712174,0.2302275958351235,0.04786235750319763,1263.7362903798178,15860.491609744595
1.0205102551275638,870.634256523381,865.6671787477078,0.019991103460131367,0.0,0.16735109194787443,0.23013500897092865,0.04786206951672485,1263.6715829374757,15876.390357057493
1.0305152576288144,870.9959895908863,866.1796206238783,0.020290684131671077,0.0,0.1674438265299354,0.23004208997330197,0.047861778097939726,1263.6066416911644,15892.275776759241
1.040520260130065,871.3484955871714,866.6783409695676,0.020591325592278525,0.0,0.1675368874790956,0.22994884246822664,0.047861483297054204,1263.5414692038519,15908.147632491211
1.0505252626313157,871.6920515618735,867.1637526655924,0.020893016453129215,0.0,0.1676302713050897,0.2298552699774647,0.04786118516384189,1263.4760679655737,15924.005697259225
1.0605302651325663,872.0269261663612,867.6362560081649,0.021195745652486643,0.0,0.16772397461874616,0.22976137592138265,0.047860883747599246,1263.4104403953756,15939.849753130897
1.070535267633817,872.3533799161836,868.0962391055333,0.021499502446875624,0.0,0.16781799412921675,0.22966716362169945,0.047860579097110105,1263.3445888432002,15955.679590942766
1.0805402701350675,872.6716654445664,868.5440782609222,0.02180427640249717,0.0,0.1679123266412833,0.22957263630415906,0.04786027126061351,1263.2785155917275,15971.495010016963
1.090545272636318,872.9820277485646,868.9801383441887,0.022110057386828544,0.0,0.16800696905272575,0.22947779710114463,0.04785996028577468,1263.2122228581736,15987.295817885744
1.1005502751375686,873.2847044266666,869.4047731504196,0.022416835560462083,0.0,0.1681019183517656,0.2293826490542179,0.047859646219658894,1263.1457127960432,16003.08183002522
1.1105552776388194,873.5799259084527,869.8183257463851,0.022724601369165546,0.0,0.1681971716145818,0.22928719511658902,0.04785932910870809,1263.0789874968323,16018.852869597666
1.12056028014007,873.8679156767403,870.2211288055166,0.023033345536152876,0.0,0.16829272600289327,0.22919143815552043,0.047859008998720136,1263.0120489916885,16034.608767201984
1.1305652826413206,874.1488904824846,870.6135049318261,0.023343059054560127,0.0,0.1683885787616078,0.22909538095466672,0.047858685934830426,1262.944899253028,16050.34936063208
1.1405702851425712,874.4230605525591,870.9957669729671,0.023653733180126882,0.0,0.16848472721653643,0.22899902621634996,0.0478583599614959,1262.877540196109,16066.074494643011
1.1505752876438218,874.690629790544,871.3682183226473,0.023965359424083194,0.0,0.1685811687721738,0.2289023765637703,0.04785803112248102,1262.8099736805632,16081.784020724794
1.1605802901450726,874.9517959718639,871.7311532144084,0.024277929546192352,0.0,0.16867790090952853,0.2288054345431686,0.04785769946084605,1262.7422015118923,16097.477796882504
1.1705852926463232,875.2067509323317,872.0848570053743,0.024591435547991716,0.0,0.1687749211840166,0.22870820262592623,0.04785736501893701,1262.674225442925,16113.155687423647
1.1805902951475737,875.4556807504891,872.4296064505663,0.02490586966622036,0.0,0.1688722272234147,0.22861068321060687,0.04785702783837748,1262.606047175234,16128.817562752392
1.1905952976488243,875.6987659241037,872.7656699683329,0.025221224366422733,0.0,0.1689698167258689,0.22851287862494343,0.047856687960062115,1262.5376683605143,16144.463299170353
1.200600300150075,875.9361815410228,873.093307897206,0.025537492336723918,0.0,0.16906768745795886,0.22841479112777086,0.04785634542415151,1262.4690906019287,16160.092778683627
1.2106053026513257,876.1680974444959,873.4127727443548,0.025854666481775687,0.0,0.1691658372528158,0.22831642291090598,0.04785600027006868,1262.4003154554114,16175.705888816072
1.2206103051525763,876.3946783929902,873.7243094256918,0.026172739916875576,0.0,0.169264264008295,0.22821777610097307,0.047855652536496734,1262.3313444309422,16191.30252242871
1.2306153076538269,876.6160842156074,874.0281554992855,0.026491705962216477,0.0,0.16936296568519063,0.22811885276118893,0.04785530226137786,1262.2621789937873,16206.88257754417
1.2406203101550775,876.8324699623812,874.3245413910191,0.026811558137299154,0.0,0.16946194030550185,0.22801965489309656,0.047854949481913475,1262.192820565708,16222.445957176864
1.250625312656328,877.043986049691,874.6136906128474,0.0271322901555012,0.0,0.16956118595074815,0.2279201844382506,0.04785459423456546,1262.1232705261352,16237.992569168724
1.2606303151575788,877.2507784010922,874.8958199741171,0.02745389591879249,0.0,0.16966070076033152,0.2278204432798567,0.04785423655505821,1262.0535302133153,16253.522326030097
1.2706353176588294,877.4529885837215,875.1711397861807,0.027776369512593293,0.0,0.16976048292994306,0.2277204332443665,0.04785387647838177,1261.9836009254216,16269.03514478569
1.28064032016008,877.6507539403626,875.4398540604528,0.028099705200773775,0.0,0.16986053071001492,0.2276201561030286,0.04785351403879568,1261.9134839216379,16284.530946825453
1.2906453226613306,877.8442077171597,875.7021606998848,0.02842389742079797,0.0,0.16996084240421694,0.22751961357339437,0.047853149269833535,1261.8431804232127,16300.009657760402
1.3006503251625812,878.0334791878606,875.9582516851809,0.028748940778977095,0.0,0.17006141636798852,0.2274188073207896,0.047852782204308386,1261.772691614487,16315.471207282462
1.310655327663832,878.2186937740721,876.2083132549949,0.02907483004585601,0.0,0.17016225100711213,0.22731773895974502,0.04785241287431872,1261.7020186438958,16330.915529028865
1.3206603301650826,878.3999731616385,876.4525260802716,0.029401560151730177,0.0,0.17026334477632768,0.22721641005538584,0.04785204131125498,1261.6311626249417,16346.342560450994
1.3306653326663331,878.5774354134064,876.6910654331313,0.02972912618228421,0.0,0.17036469617798528,0.22711482212478337,0.047851667545806685,1261.5601246371405,16361.75224268736
1.3406703351675837,878.7511950784899,876.9241013504745,0.030057523374348548,0.0,0.17046630376073518,0.22701297663827025,0.04785129160796988,1261.4889057269436,16377.144520440614
1.3506753376688343,878.9213632981156,877.1517987924302,0.03038674711177283,0.0,0.1705681661182538,0.22691087502071886,0.04785091352705514,1261.4175069086355,16392.51934185847
1.360680340170085,879.08804790801,877.3743177955893,0.03071679292141944,0.0,0.1706702818880078,0.226808518652783,0.04785053333169583,1261.3459291652034,16407.876658418638
1.3706853426713357,879.2513535380217,877.5918136220657,0.031047656469248595,0.0,0.17077264975004702,0.22670590887211034,0.04785015104985685,1261.2741734491897,16423.216424816925
1.3806903451725863,879.411381708626,877.804436903861,0.03137933355651176,0.0,0.1708752684258307,0.22660304697452155,0.04784976670884358,1261.2022406835183,16438.53859885902
1.3906953476738368,879.5682309243376,878.0123337825733,0.031711820116053814,0.0,0.17097813667708836,0.2264999342151557,0.04784938033531115,1261.1301317623024,16453.843141355752
1.4007003501750874,879.7219967642516,878.2156460447827,0.03204511220871567,0.0,0.17108125330471155,0.2263965718095844,0.04784899195527389,1261.057847551624,16469.13001602173
1.4107053526763382,879.8727719698082,878.414511253259,0.032379206019834746,0.0,0.17118461714767644,0.2262929609348951,0.047848601594114984,1260.985388890298,16484.399189377174
1.4207103551775888,880.020646529846,878.6090628740872,0.03271409785584152,0.0,0.17128822708199606,0.22618910273074525,0.047848209276596276,1260.9127565906138,16499.650630652868
1.4307153576788394,880.1657077628946,878.7994303996479,0.033049784140955656,0.0,0.17139208201970402,0.22608499830038487,0.04784781502686823,1260.8399514390535,16514.884311698323
1.44072036018009,880.3080403972505,878.9857394682568,0.03338626141395893,0.0,0.17149618090786153,0.2259806487116557,0.04784741886848,1260.7669741969976,16530.1002068925
1.4507253626813406,880.4477266486083,879.1681119801295,0.03372352632505592,0.0,0.1716005227275926,0.22587605499796284,0.0478470208243896,1260.6938256014064,16545.298293057444
1.4607303651825914,880.584846295211,879.3466662096222,0.034061575632825254,0.0,0.17170510649314655,0.22577121815921838,0.04784662091697421,1260.6205063654884,16560.4785493747
1.470735367683842,880.7194767507132,879.5215169140333,0.034400406201253717,0.0,0.17180993125098673,0.2256661391627592,0.04784621916804036,1260.547017179344,16575.640957304455
1.4807403701850925,880.851693134826,879.6927754390798,0.034740014996851344,0.0,0.17191499607890443,0.22556081894423988,0.04784581559883432,1260.473358710598,16590.785500507183
1.490745372686343,880.9815683418076,879.8605498211307,0.03508039908584552,0.0,0.172020300085157,0.22545525840850067,0.04784541023005236,1260.3995316050086,16605.912164767866
1.5007503751875937,881.1091731067415,880.0249448861306,0.035421555631457366,0.0,0.1721258424076317,0.2253494584304104,0.047845003081851044,1260.3255364870656,16621.020937922654
1.5107553776888443,881.2345760700276,880.1860623458324,0.03576348189124263,0.0,0.17223162221302982,0.22524341985568913,0.047844594173857516,1260.2513739605686,16636.111809787744
1.520760380190095,881.3578438399479,880.3440008911452,0.036106175214503565,0.0,0.1723376386960721,0.22513714350170863,0.04784418352517983,1260.177044609193,16651.184772090426
1.5307653826913457,881.4790410532387,880.4988562824924,0.036449633039776,0.0,0.17244389107872815,0.2250306301582698,0.0478437711544171,1260.1025489970389,16666.239818402482
1.5407703851925962,881.5982304338304,880.6507214374218,0.03679385289238495,0.0,0.17255037860946684,0.22492388058835877,0.04784335707966965,1260.0278876691657,16681.276944075627
1.5507753876938468,881.7154728498149,880.7996865155601,0.037138832382066875,0.0,0.17265710056252703,0.22481689552888232,0.047842941318549166,1259.9530611521118,16696.296146179113
1.5607803901950974,881.8308273686847,880.9458390009786,0.03748456920065711,0.0,0.17276405623720892,0.22470967569138295,0.047842523888188604,1259.878069954399,16711.29742343922
1.5707853926963482,881.9443513108066,881.089263781912,0.037831061119845126,0.0,0.17287124495718603,0.22460222176273323,0.04784210480525212,1259.8029145670246,16726.28077618087
1.5807903951975988,882.056100301438,881.2300432282957,0.03817830598898391,0.0,0.17297866606983398,0.22449453440581313,0.047841684085944886,1259.7275954639397,16741.246206270855
1.5907953976988494,882.16612832123,881.3682572670347,0.038526301732956784,0.0,0.1730863189455772,0.22438661426016943,0.0478412617460228,1259.6521131025168,16756.193717062954
1.6008004002001,882.2744877551193,881.5039834548616,0.03887504635010658,0.0,0.17319420297725452,0.22427846194265644,0.04784083780080215,1259.5764679240015,16771.123313344782
1.6108054027013505,882.3812294397507,881.6372970489967,0.039224537910221374,0.0,0.17330231757950262,0.22417007804805822,0.04784041226516906,1259.5006603539553,16786.035001286393
1.6208104052026013,882.4864027094768,881.7682710756746,0.03957477455257517,0.0,0.17341066218815618,0.22406146314969472,0.047839985153588845,1259.424690802681,16800.92878839052
1.630815407703852,882.590055440971,881.8969763966015,0.039925754484022295,0.0,0.17351923625966453,0.2239526178000107,0.0478395564801153,1259.3485596656442,16815.8046834444
1.6408204102051025,882.6922340964244,882.0234817732908,0.040277475977147564,0.0,0.17362803927052564,0.22384354253114758,0.04783912625839977,1259.272267323875,16830.66269647323
1.650825412706353,882.7929837655528,882.1478539296214,0.04062993736846198,0.0,0.17373707071673414,0.22373423785550114,0.04783869450170011,1259.195814144363,16845.502838694978
1.6608304152076037,882.8923482064115,882.2701576126077,0.04098313705664475,0.0,0.17384633011324352,0.22362470426626496,0.04783826122288961,1259.119200480446,16860.32512247667
1.6708354177088545,882.9903698849057,882.390455651226,0.04133707350083702,0.0,0.17395581699344415,0.22351494223795765,0.04783782643446565,1259.0424266721798,16875.12956129201
1.680840420210105,883.0870900131192,882.5088090134706,0.041691745218982265,0.0,0.17406553090865615,0.22340495222693602,0.04783739014855833,1258.9654930467022,16889.916169680568
1.6908454227113556,883.1825485864972,882.6252768616986,0.04204715078621204,0.0,0.17417547142763531,0.2232947346718936,0.04783695237693885,1258.8883999185905,16904.684963208052
1.7008504252126062,883.2767844199159,882.739916606311,0.042403288833275835,0.0,0.17428563813609368,0.2231842899943462,0.04783651313102783,1258.8111475901999,16919.43595842804
1.7108554277138568,883.369835182613,882.8527839577337,0.04276015804501683,0.0,0.17439603063623318,0.22307361859910282,0.0478360724219034,1258.7337363520019,16934.16917284488
1.7208604302151076,883.4617374321459,882.9639329769439,0.04311775715888595,0.0,0.17450664854629183,0.22296272087472477,0.04783563026030924,1258.6561664829085,16948.8846248778
1.7308654327163582,883.5525266474057,883.0734161245858,0.04347608496349325,0.0,0.17461749150010097,0.2228515971939733,0.047835186656662414,1258.5784382505888,16963.58233382605
1.7408704352176088,883.6422372605763,883.1812843085139,0.043835140297202105,0.0,0.17472855914665575,0.22274024791424396,0.04783474162106112,1258.5005519117797,16978.262319835296
1.7508754377188593,883.7309026881409,883.287586929911,0.044194922046762015,0.0,0.17483985114969766,0.22262867337798922,0.0478342951632922,1258.4225077125834,16992.924603865034
1.76088044022011,883.8185553609642,883.3923719280267,0.04455542914597859,0.0,0.174951367187308,0.22251687391312902,0.04783384729283861,1258.34430588876,17007.56920765713
1.7708854427213607,883.905226753476,883.495685823579,0.04491666057442005,0.0,0.17506310695151323,0.22240484983345082,0.047833398018886676,1258.2659466660104,17022.19615370529
1.7808904452226113,883.9909474119436,883.5975737607893,0.04527861535616124,0.0,0.175175070147901,0.22229260143899726,0.04783294735033319,1258.1874302602541,17036.80546522562
1.7908954477238619,884.0757469819418,883.6980795482259,0.045641292558559886,0.0,0.17528725649524698,0.22218012901644443,0.047832495295792365,1258.1087568778953,17051.397166128114
1.8009004502251125,884.1596542350782,883.7972456985317,0.04600469129106307,0.0,0.17539966572515014,0.22206743283947056,0.04783204186360281,1258.0299267160844,17065.97128098894
1.810905452726363,884.2426970948619,883.8951134668782,0.046368810704049,0.0,0.1755122975816794,0.22195451316911374,0.0478315870618341,1257.9509399629749,17080.527835023735
1.8209104552276139,884.3249026618056,883.9917228882709,0.04673364998770058,0.0,0.17562515182102972,0.22184137025411985,0.047831130898293425,1257.8717967979676,17095.06685406175
1.8309154577288644,884.406297237777,884.0871128137405,0.04709920837090979,0.0,0.17573822821118787,0.22172800433128118,0.04783067338053195,1257.7924973919535,17109.588364520856
1.840920460230115,884.4869063496301,884.1813209454564,0.04746548512021196,0.0,0.17585152653160688,0.22161441562576537,0.04783021451585117,1257.713041907546,17124.09239338331
1.8509254627313656,884.5667547720997,884.2743838707432,0.04783247953875089,0.0,0.1759650465728909,0.22150060435143515,0.04782975431130899,1257.6334304993084,17138.578968172398
1.8609304652326162,884.6458665500388,884.3663370951178,0.04820019096527107,0.0,0.17607878813648695,0.22138657071115983,0.047829292773725746,1257.5536633139757,17153.048116929775
1.870935467733867,884.7242650200646,884.4572150744423,0.04856861877313421,0.0,0.1761927510343855,0.2212723148971186,0.04782882990969014,1257.4737404906696,17167.499868193543
1.8809404702351176,884.8019728315115,884.5470512460458,0.04893776236936498,0.0,0.1763069350888292,0.2211578370910958,0.04782836572556494,1257.3936621611094,17181.93425097703
1.8909454727363681,884.8790119667613,884.635878058918,0.04930762119372301,0.0,0.17642134013202973,0.22104313746476703,0.04782790022749262,1257.3134284498142,17196.351294748296
1.9009504752376187,884.9554037609697,884.7237270030016,0.04967819471780023,0.0,0.17653596600589258,0.22092821617997832,0.04782743342140092,1257.2330394743021,17210.751029410345
1.9109554777388693,885.03116892121,884.8106286376167,0.05004948244414275,0.0,0.1766508125617493,0.22081307338901707,0.04782696531300812,1257.1524953452827,17225.13348528189
1.9209604802401201,885.1063275450232,884.896612619,0.05042148390539818,0.0,0.1767658796600973,0.22069770923487544,0.0478264959078283,1257.0717961668445,17239.498693078873
1.9309654827413707,885.1808991384289,884.9817077270432,0.050794198663485494,0.0,0.176881167170347,0.22058212385150688,0.04782602521117652,1256.9909420366366,17253.846683896518
1.9409704852426213,885.254902633466,885.0659418913241,0.05116762630878472,0.0,0.1769966749705745,0.2204663173640761,0.04782555322817379,1256.909933046048,17268.17748919196
1.9509754877438719,885.3283564051713,885.149342216308,0.05154176645935061,0.0,0.1771124029472821,0.22035028988920202,0.04782507996375194,1256.828769280379,17282.491140767477
1.9609804902451224,885.4012782880557,885.2319350057937,0.05191661876014797,0.0,0.177228350995165,0.22023404153519408,0.04782460542265847,1256.7474508190094,17296.787670754267
1.970985492746373,885.4736855920897,885.3137457866321,0.05229218288230793,0.0,0.17734451901688472,0.22011757240228152,0.047824129609461134,1256.665977735563,17311.067111596778
1.9809904952476238,885.5455951182206,885.3947993317438,0.05266845852240436,0.0,0.17746090692284824,0.22000088258283715,0.047823652528552515,1256.5843500980652,17325.329496037528
1.9909954977488744,885.617023173409,885.4751196824241,0.053045445401751025,0.0,0.17757751463099428,0.2198839721615944,0.0478231741841545,1256.5025679690982,17339.574857102485
2.001000500250125,885.6879855852251,885.5547301699886,0.05342314326571791,0.0,0.1776943420665845,0.21976684121585793,0.04782269458032252,1256.42063140595,17353.80322808691
2.0110055027513756,885.7584977160676,885.633653436857,0.053801551883063216,0.0,0.17781138916200004,0.21964948981571064,0.047822213720949885,1256.3385404607636,17368.0146425416
2.0210105052526264,885.8285744769315,885.7119114569639,0.054180671045285504,0.0,0.17792865585654424,0.21953191802421307,0.04782173160977181,1256.2562951806772,17382.209134259687
2.0310155077538767,885.8982303407654,885.7895255555579,0.054560500565993285,0.0,0.1780461420962504,0.21941412589759848,0.04782124825036957,1256.1738956079632,17396.38673726382
2.0410205102551275,885.9674793554348,885.8665164284138,0.054941040280292265,0.0,0.17816384783369488,0.21929611348546185,0.04782076364617427,1256.0913417801632,17410.54748579382
2.0510255127563783,886.0363351563041,885.9429041604727,0.05532229004418877,0.0,0.17828177302781573,0.21917788083094397,0.047820277800470816,1256.0086337302193,17424.69141429471
2.0610305152576287,886.1048109784335,886.0187082439137,0.055704249734010496,0.0,0.1783999176437359,0.21905942797091074,0.047819790716401536,1255.9257714866012,17438.81855740518
2.0710355177588795,886.1729196684164,886.0939475956804,0.056086919245842984,0.0,0.17851828165259165,0.21894075493612655,0.04781930239696986,1255.8427550734293,17452.92894994644
2.08104052026013,886.2406736959116,886.1686405745592,0.056470298494979115,0.0,0.17863686503136483,0.2188218617514247,0.04781881284504392,1255.7595845105964,17467.022626911403
2.0910455227613807,886.3080851648151,886.242804997714,0.05685438741538483,0.0,0.1787556677627201,0.21870274843587226,0.0478183220633599,1255.6762598138857,17481.09962345429
2.1010505252626315,886.3751658240975,886.3164581567229,0.05723918595917952,0.0,0.17887468983484656,0.21858341500293035,0.047817830054525515,1255.5927809950838,17495.159974880575
2.111055527763882,886.4419270783242,886.3896168331408,0.0576246940961307,0.0,0.17899393124130392,0.21846386146061036,0.04781733682102328,1255.509148062093,17509.20371663722
2.1210605302651326,886.508379997866,886.4622973135985,0.05801091181316233,0.0,0.1791133919808728,0.2183440878116256,0.04781684236521364,1255.4253610190372,17523.230884303342
2.131065532766383,886.574535328804,886.5345154044423,0.058397839113876825,0.0,0.17923307205740888,0.2182240940535389,0.0478163466893382,1255.3414198663709,17537.241513581113
2.141070535267634,886.640403502536,886.6062864459274,0.05878547601809067,0.0,0.1793529714797016,0.21810388017890608,0.04781584979552265,1255.2573246009763,17551.235640287025
2.151075537768884,886.7059946451419,886.6776253260502,0.05917382256138029,0.0,0.17947309026133604,0.2179834461754161,0.04781535168577982,1255.1730752162678,17565.213300343432
2.161080540270135,886.7713185864599,886.7485464939433,0.059562878794641394,0.0,0.1795934284205582,0.21786279202602699,0.04781485236201257,1255.0886717022859,17579.174529770364
2.1710855427713858,886.8363848688907,886.8190639728632,0.05995264478366039,0.0,0.1797139859801449,0.21774191770909834,0.047814351826016545,1255.0041140457922,17593.11936467769
2.181090545272636,886.9012027559475,886.8891913727952,0.060343120608697426,0.0,0.1798347629672767,0.21762082319852,0.047813850079482946,1254.9194022303616,17607.047841257445
2.191095547773887,886.9657812405572,886.9589419026811,0.060734306364080816,0.0,0.17995575941341424,0.2174995084638371,0.047813347124001246,1254.8345362364707,17620.95999577659
2.2011005502751373,887.0301290531163,887.0283283822776,0.06112620215781255,0.0,0.1800769753541782,0.21737797347037213,0.047812842961061724,1254.7495160415851,17634.85586456981
2.211105552776388,887.094254669304,887.0973632536462,0.061518808111185146,0.0,0.18019841082923257,0.21725621817934307,0.04781233759205801,1254.6643416202432,17648.7354840328
2.221110555277639,887.1581663177056,887.1660585923537,0.06191212435840685,0.0,0.18032006588217067,0.217134242547979,0.0478118310182896,1254.5790129441393,17662.598890615584
2.2311155577788893,887.2218719872033,887.2344261183175,0.06230615104623788,0.0,0.1804419405604041,0.2170120465296326,0.047811323240964196,1254.4935299822023,17676.446120816185
2.24112056028014,887.2853794341491,887.3024772063214,0.06270088833363663,0.0,0.18056403491505515,0.21688963007388923,0.047810814261200124,1254.4078927006753,17690.277211174514
2.2511255627813904,887.3486961893367,887.3702228962171,0.06309633639141529,0.0,0.18068634900085195,0.2167669931266734,0.04781030408002854,1254.3221010631896,17704.0921982664
2.2611305652826412,887.4118295647716,887.4376739028224,0.063492495401905,0.0,0.1808088828760265,0.21664413563035195,0.04780979269839569,1254.2361550308394,17717.891118697942
2.271135567783892,887.4747866602505,887.5048406255177,0.06388936555862998,0.0,0.18093163660221537,0.2165210575238347,0.04780928011716509,1254.1500545622525,17731.674009099996
2.2811405702851424,887.5375743697448,887.5717331575405,0.06428694706599085,0.0,0.18105461024436326,0.21639775874267234,0.04780876633711955,1254.0637996136618,17745.440906122858
2.291145572786393,887.6001993876343,887.6383612950453,0.06468524013895524,0.0,0.1811778038706289,0.21627423921915181,0.04780825135896331,1253.9773901389703,17759.19184643119
2.3011505752876436,887.6626682147604,887.7047345458755,0.06508424500275689,0.0,0.18130121755229323,0.21615049888238927,0.04780773518332402,1253.8908260898206,17772.926866699087
2.3111555777888944,887.7249871643062,887.7708621380651,0.06548396189260328,0.0,0.18142485136367065,0.21602653765842036,0.04780721781075462,1253.8041074156572,17786.646003605347
2.321160580290145,887.7871623675195,887.8367530280857,0.06588439105339079,0.0,0.18154870538202206,0.215902355470288,0.047806699241735306,1253.7172340637885,17800.34929382891
2.3311655827913955,887.8491997792796,887.9024159088424,0.06628553273942776,0.0,0.1816727796874705,0.21577795223812804,0.047806179476675356,1253.63020597945,17814.03677404447
2.3411705852926463,887.9111051835171,887.9678592174266,0.06668738721416477,0.0,0.18179707436291928,0.2156533278792524,0.04780565851591487,1253.543023105862,17827.70848091826
2.3511755877938967,887.9728841984792,888.0330911426191,0.06708995474993269,0.0,0.18192158949397197,0.21552848230823016,0.04780513635972658,1253.4556853842873,17841.36445110398
2.3611805902951475,888.0345422818859,888.0981196321989,0.06749323562768636,0.0,0.18204632516885433,0.21540341543696645,0.04780461300831751,1253.3681927540879,17855.00472123889
2.3711855927963983,888.0960847359466,888.1629524000184,0.06789723013675543,0.0,0.1821712814783387,0.21527812717477934,0.047804088461830624,1253.2805451527797,17868.629327940074
2.3811905952976486,888.1575167122484,888.2275969328566,0.06830193857460203,0.0,0.18229645851566995,0.21515261742847497,0.04780356272034652,1253.1927425160864,17882.238307800813
2.3911955977988995,888.2188432165268,888.292060497059,0.0687073612465847,0.0,0.18242185637649375,0.21502688610242002,0.04780303578388485,1253.1047847779894,17895.831697387137
2.40120060030015,888.2800691133228,888.3563501449739,0.06911349846572852,0.0,0.18254747515878642,0.21490093309861302,0.04780250765240597,1253.0166718707808,17909.40953323448
2.4112056028014006,888.341199130533,888.4204727211841,0.06952035055250137,0.0,0.18267331496278702,0.21477475831675322,0.047801978325812386,1252.9284037251116,17922.97185184451
2.4212106053026514,888.4022378638521,888.4844348685328,0.06992791783459622,0.0,0.18279937589093082,0.21464836165430778,0.04780144780395019,1252.8399802700385,17936.518689682074
2.431215607803902,888.463189781136,888.5482430339844,0.07033620064671825,0.0,0.18292565804778463,0.21452174300657775,0.04780091608661045,1252.7514014330727,17950.050083172224
2.4412206103051526,888.5240592266767,888.6119034742933,0.07074519933037773,0.0,0.1830521615399837,0.21439490226676158,0.04780038317353065,1252.6626671402244,17963.566068697462
2.451225612806403,888.5848504253892,888.6754222614845,0.071154914233688,0.0,0.1831788864761701,0.2142678393260179,0.04779984906439596,1252.5737773160465,17977.066682595043
2.4612306153076537,888.6455674869215,888.738805288155,0.07156534571116904,0.0,0.18330583296693315,0.2141405540735259,0.04779931375884056,1252.4847318836794,17990.551961154397
2.4712356178089045,888.7062144097016,888.802058272601,0.07197649412355565,0.0,0.1834330011247506,0.2140130463965447,0.047798777256448925,1252.3955307648916,18004.021940614675
2.481240620310155,888.7667950849154,888.865186763772,0.07238835983761052,0.0,0.18356039106393213,0.21388531618047094,0.04779823955675704,1252.306173880122,18017.476657162457
2.4912456228114057,888.8273133004316,888.9281961460493,0.07280094322594252,0.0,0.18368800290056375,0.21375736330889494,0.04779770065925359,1252.2166611485195,18030.916146929456
2.501250625312656,888.8877727446874,888.9910916438762,0.07321424466682824,0.0,0.1838158367524535,0.2136291876636558,0.04779716056338116,1252.1269924879819,18044.340445990478
2.511255627813907,888.9481770105375,889.0538783262258,0.07362826454403844,0.0,0.1839438927390787,0.21350078912489495,0.04779661926853738,1252.0371678151932,18057.749590361356
2.5212606303151577,889.008529599068,889.1165611109021,0.07404300324666839,0.0,0.18407217098153417,0.21337216757110852,0.04779607677407601,1251.9471870456644,18071.143615997076
2.531265632816408,889.0688339233883,889.1791447686821,0.07445846116897252,0.0,0.18420067160248188,0.21324332287919845,0.047795533079308054,1251.8570500937653,18084.52255878999
2.541270635317659,889.1290933124125,889.2416339273016,0.07487463871020283,0.0,0.18432939472610174,0.21311425492452227,0.04779498818350282,1251.766756872763,18097.88645456809
2.551275637818909,889.1893110146369,889.3040330752855,0.07529153627445083,0.0,0.18445834047804346,0.21298496358094202,0.04779444208588894,1251.6763072948556,18111.235339093455
2.56128064032016,889.2494902019214,889.3663465656145,0.07570915427049342,0.0,0.18458750898537968,0.21285544872087175,0.04779389478565542,1251.5857012712067,18124.569248060707
2.571285642821411,889.3096339733005,889.428578619255,0.07612749311164158,0.0,0.18471690037655983,0.21272571021532422,0.04779334628195255,1251.4949387119777,18137.888217095664
2.581290645322661,889.3697453588238,889.4907333285338,0.07654655321559216,0.0,0.18484651478136493,0.2125957479339568,0.04779279657389296,1251.404019526361,18151.19228175403
2.591295647823912,889.4298273234385,889.552814660356,0.07696633500428299,0.0,0.18497635233086354,0.2124655617451159,0.047792245660552526,1251.312943622612,18164.48147752022
2.6013006503251623,889.4898827709279,889.614826459265,0.07738683890375077,0.0,0.1851064131573684,0.21233515151588125,0.04779169354097129,1251.22171090808,18177.755839806254
2.611305652826413,889.5499145479253,889.6767724503519,0.0778080653439917,0.0,0.18523669739439402,0.21220451711210855,0.04779114021415439,1251.1303212892387,18191.015403950783
2.621310655327664,889.6099254480123,889.7386562420023,0.0782300147588246,0.0,0.1853672051766151,0.21207365839847198,0.047790585679072906,1251.0387746717174,18204.26020521821
2.6313156578289143,889.6699182159234,889.8004813284821,0.07865268758575655,0.0,0.18549793663982525,0.2119425752385056,0.047790029934664795,1250.9470709603283,18217.49027879788
2.641320660330165,889.7298955518788,889.8622510923699,0.07907608426585046,0.0,0.18562889192089704,0.21181126749464424,0.04778947297983572,1250.8552100590982,18230.70565980345
2.6513256628314155,889.7898601160601,889.9239688068287,0.0795002052435943,0.0,0.18576007115774198,0.21167973502826384,0.04778891481345987,1250.7631918712952,18243.906383272293
2.6613306653326663,889.8498145332504,889.9856376377029,0.07992505096677252,0.0,0.1858914744892713,0.21154797769972122,0.047788355434380834,1250.671016299458,18257.092484165056
2.671335667833917,889.9097613976639,890.0472606454423,0.08035062188633876,0.0,0.18602310205535727,0.2114159953683933,0.047787794841412434,1250.5786832454244,18270.263997365324
2.6813406703351674,889.9697032779884,890.1088407868494,0.08077691845629019,0.0,0.18615495399679485,0.211283787892716,0.04778723303333948,1250.4861926103567,18283.420957679416
2.6913456728364182,890.0296427226709,890.1703809166428,0.08120394113354278,0.0,0.18628703045526376,0.21115135513022265,0.04778667000891863,1250.3935442947725,18296.563399836272
2.7013506753376686,890.0895822654761,890.2318837888245,0.08163169037780758,0.0,0.18641933157329066,0.21101869693758224,0.04778610576687917,1250.3007381985678,18309.69135848747
2.7113556778389194,890.1495244313498,890.2933520578594,0.08206016665146766,0.0,0.18655185749421183,0.2108858131706375,0.047785540305923774,1250.2077742210479,18322.804868207433
2.72136068034017,890.2094717426244,890.3547882796543,0.08248937041945492,0.0,0.18668460836213546,0.2107527036844427,0.047784973624729415,1250.1146522609524,18335.903963493693
2.7313656828414206,890.2694267256002,890.416194912319,0.0829193021491275,0.0,0.18681758432190437,0.21061936833330186,0.047784405721947996,1250.0213722164815,18348.988678767393
2.7413706853426714,890.3293919175491,890.4775743167058,0.08334996231014696,0.0,0.1869507855190587,0.21048580697080624,0.047783836596207274,1249.9279339853258,18362.059048373867
2.7513756878439217,890.3893698741825,890.5389287567174,0.0837813513743547,0.0,0.18708421209979806,0.21035201944987295,0.04778326624611158,1249.8343374646909,18375.11510658344
2.7613806903451725,890.4493631776371,890.6002603993738,0.08421346981564794,0.0,0.18721786421094377,0.2102180056227829,0.04778269467024271,1249.7405825513245,18388.156887592362
2.7713856928464233,890.5093744450317,890.66157131462,0.08464631810985437,0.0,0.1873517419999009,0.21008376534121972,0.04778212186716061,1249.6466691415467,18401.18442552396
2.7813906953476737,890.5694063376517,890.7228634748795,0.08507989673460523,0.0,0.18748584561461926,0.2099492984563088,0.04778154783540433,1249.5525971312743,18414.197754429988
2.7913956978489245,890.6294615708226,890.7841387543363,0.08551420616920648,0.0,0.18762017520355434,0.20981460481865724,0.047780972573492786,1249.4583664160525,18427.196908292153
2.801400700350175,890.6895429245412,890.8453989279279,0.08594924689450761,0.0,0.1877547309156274,0.20967968427839423,0.04778039607992563,1249.3639768910816,18440.18192102393
2.8114057028514257,890.7496532549421,890.9066456700419,0.08638501939276805,0.0,0.18788951290018455,0.2095445366852123,0.04777981835318415,1249.2694284512463,18453.152826472597
2.8214107053526765,890.8097955066792,890.9678805529061,0.08682152414752005,0.0,0.18802452130695513,0.2094091618884099,0.04777923939173213,1249.1747209911475,18466.10965842149
2.831415707853927,890.8699727263049,891.0291050446646,0.0872587616434282,0.0,0.18815975628600895,0.2092735597369344,0.04777865919401678,1249.0798544051313,18479.052450592633
2.8414207103551776,890.9301880767548,891.0903205071255,0.08769673236614509,0.0,0.1882952179877121,0.20913773007942704,0.04777807775846976,1248.9848285873222,18491.981236649575
2.851425712856428,890.9904448530216,891.1515281931893,0.0881354368021617,0.0,0.1884309065626816,0.20900167276426876,0.04777749508350805,1248.8896434316553,18504.896050200645
2.861430715357679,891.0507464991206,891.2127292439578,0.08857487543865358,0.0,0.18856682216173834,0.20886538763962825,0.047776911167535054,1248.7942988319096,18517.796924802515
2.8714357178589296,891.1110966264786,891.2739246855158,0.0890150487633208,0.0,0.18870296493585856,0.20872887455351077,0.04777632600894165,1248.698794681745,18530.683893964146
2.88144072036018,891.1714990338631,891.3351154254003,0.08945595726422216,0.0,0.1888393350361231,0.2085921333538098,0.04777573960610725,1248.6031308747363,18543.55699115119
2.8914457228614308,891.2319577289844,891.3963022487766,0.0898976014296031,0.0,0.1889759326136651,0.20845516388835988,0.047775151957401056,1248.507307304413,18556.416249790815
2.901450725362681,891.292476951905,891.4574858143498,0.09033998174771625,0.0,0.1891127578196153,0.20831796600499247,0.04777456306118314,1248.4113238642985,18569.26170327703
2.911455727863932,891.353061200425,891.5186666500423,0.09078309870663491,0.0,0.1892498108050453,0.20818053955159305,0.0477739729158058,1248.3151804479494,18582.0933849765
2.9214607303651827,891.4137152575761,891.5798451485083,0.09122695279405843,0.0,0.18938709172090812,0.20804288437616156,0.04777338151961483,1248.2188769490003,18594.911328235015
2.931465732866433,891.4744442213555,891.6410215625671,0.09167154449711007,0.0,0.1895246007179767,0.20790500032687478,0.04777278887095089,1248.1224132612085,18607.715566384493
2.941470735367684,891.5352535369121,891.7021960006308,0.09211687430212648,0.0,0.18966233794677997,0.2077668872521513,0.047772194968150945,1248.025789278498,18620.506132750685
2.9514757378689342,891.5961490313402,891.7633684222632,0.09256294269443906,0.0,0.18980030355753585,0.20762854500071914,0.047771599809549765,1247.92900489501,18633.28306066162
2.961480740370185,891.65713695125,891.8245386340272,0.09300975015814765,0.0,0.18993849770008275,0.20748997342168554,0.047771003393481434,1247.83206000515,18646.04638345678
2.971485742871436,891.7182240032896,891.8857062858206,0.09345729717588654,0.0,0.19007692052380787,0.20735117236460943,0.047770405718281006,1247.7349545036427,18658.796134497155
2.981490745372686,891.7794173978147,891.9468708679373,0.09390558422858385,0.0,0.19021557217757432,0.20721214167957555,0.04776980678228606,1247.6376882855827,18671.53234717615
2.991495747873937,891.8407248958429,892.0080317091704,0.09435461179521547,0.0,0.19035445280964597,0.20707288121727066,0.047769206583838514,1247.5402612464893,18684.255054931542
3.0015007503751874,891.9021548593815,892.0691879763348,0.09480438035255519,0.0,0.19049356256761113,0.20693339082906054,0.047768605121286195,1247.4426732823601,18696.964291258344
3.011505752876438,891.9637163053516,892.1303386756242,0.09525489037492357,0.0,0.19063290159830656,0.20679367036706778,0.04776800239298467,1247.3449242897289,18709.66008972292
3.0215107553776885,892.0254189631881,892.1914826563409,0.09570614233393765,0.0,0.19077247004774076,0.2066537196842489,0.04776739839729888,1247.247014165718,18722.342483978155
3.0315157578789393,892.0872733361982,892.2526186176248,0.09615813669826637,0.0,0.19091226806101969,0.2065135386344702,0.04776679313260484,1247.1489428080945,18735.01150777998
3.04152076038019,892.1492907667075,892.3137451189152,0.09661087393339564,0.0,0.19105229578227512,0.20637312707257993,0.04776618659729124,1247.0507101153198,18747.667195005142
3.0515257628814405,892.2114835050232,892.3748605950012,0.09706435450140931,0.0,0.19119255335459787,0.20623248485447634,0.047765578789760885,1246.9523159865994,18760.309579670517
3.0615307653826913,892.2738647821064,892.4359633766634,0.09751857886079354,0.0,0.1913330409199783,0.20609161183716815,0.04776496970843204,1246.8537603219247,18772.938695953733
3.0715357678839417,892.3364488856568,892.4970517180451,0.09797354746627371,0.0,0.1914737586192563,0.2059505078788245,0.0477643593517394,1246.75504302211,18785.55457821554
3.0815407703851925,892.3992512395166,892.5581238320151,0.09842926076869439,0.0,0.191614706592085,0.20580917283881262,0.04776374771813495,1246.6561639888168,18798.157261023614
3.0915457728864433,892.462288485985,892.6191779349655,0.0988857192149549,0.0,0.1917558849769106,0.20566760657771752,0.04776313480608815,1246.5571231245717,18810.746779178193
3.1015507753876936,892.5255785705262,892.6802123026345,0.09934292324801597,0.0,0.19189729391097468,0.20552580895733982,0.047762520614085834,1246.4579203327603,18823.323167739338
3.1115557778889444,892.5891408282195,892.7412253386753,0.09980087330699507,0.0,0.19203893353034282,0.20538377984066675,0.04776190514063129,1246.3585555176098,18835.88646205602
3.121560780390195,892.6529960711827,892.802215657828,0.10025956982737018,0.0,0.1921808039699664,0.20524151909180896,0.047761288384242595,1246.2590285841418,18848.436697796966
3.1315657828914456,892.7171666759298,892.8631821856453,0.10071901324131641,0.0,0.19232290536378494,0.20509902657589663,0.047760670343449996,1246.1593394380986,18860.973910983317
3.1415707853926964,892.7816766691959,892.9241242766549,0.10117920397820092,0.0,0.19246523784487646,0.20495630215892677,0.047760051016792024,1246.0594879858352,18873.498138022962
3.1515757878939468,892.8465518110529,892.9850418529135,0.10164014246526601,0.0,0.19260780154566504,0.2048133457075522,0.047759430402810325,1245.959474134167,18886.009415746597
3.1615807903951976,892.9118196735695,893.045935564747,0.10210182912853209,0.0,0.1927505965981953,0.20467015708880285,0.04775880850004276,1245.8592977901715,18898.507781445387
3.171585792896448,892.9775097130666,893.1068069752135,0.10256426439395547,0.0,0.19289362313448466,0.20452673616972805,0.04775818530701468,1245.7589588609337,18910.993272910084
3.1815907953976987,893.0436533338084,893.1676587694532,0.10302744868887898,0.0,0.193036881286964,0.2043830828169487,0.04775756082222803,1245.6584572532258,18923.465928471414
3.1915957978989495,893.1102839408128,893.2284949895936,0.1034913824438137,0.0,0.19318037118901976,0.20423919689610684,0.047756935044147866,1245.5577928731143,18935.92578704158
3.2016008004002,893.1774369791915,893.2893212951639,0.10395606609459246,0.0,0.19332409297564881,0.2040950782712007,0.047756307971186324,1245.4569656254862,18948.372888156537
3.2116058029014507,893.2451499569687,893.3501452476463,0.10442150008493294,0.0,0.1934680467842375,0.203950726803793,0.04775567960168336,1245.3559754134842,18960.807272018646
3.221610805402701,893.3134624489547,893.4109766172683,0.10488768486944726,0.0,0.1936122327554776,0.20380614235208158,0.047755049933884214,1245.2548221378427,18973.228979539388
3.231615807903952,893.3824160787765,893.4718277085309,0.10535462091713223,0.0,0.19375665103442705,0.20366132476982124,0.04775441896591333,1245.1535056961193,18985.638052381677
3.2416208104052027,893.4520544763101,893.5327136995147,0.10582230871536671,0.0,0.1939013017717263,0.20351627390508917,0.04775378669574439,1245.0520259818145,18998.034533001268
3.251625812906453,893.5224232079886,893.5936529884262,0.10629074877443538,0.0,0.19404618512497349,0.20337098959888772,0.04775315312116655,1244.9503828833735,19010.41846468664
3.261630815407704,893.5935696778415,893.6546675393466,0.10675994163258785,0.0,0.1941913012602637,0.20322547168358185,0.04775251823974644,1244.848576283073,19022.789891596836
3.271635817908954,893.6655429975002,893.7157832175461,0.10722988786162983,0.0,0.19433665035388886,0.2030797199811721,0.047751882048786345,1244.7466060557883,19035.14885879654
3.281640820410205,893.7383938237986,893.7770301024594,0.10770058807301837,0.0,0.1944822325941917,0.20293373430141204,0.04775124454527846,1244.6444720676507,19047.495412287626
3.291645822911456,893.8121741639505,893.8384427667572,0.10817204292442728,0.0,0.19462804818356255,0.20278751443978008,0.047750605725855544,1244.5421741745993,19059.829599036573
3.301650825412706,893.8869371486977,893.9000605085234,0.10864425312672521,0.0,0.19477409734056125,0.20264106017532452,0.04774996558673843,1244.4397122208454,19072.15146699713
3.311655827913957,893.9627367748296,893.9619275234458,0.10911721945128756,0.0,0.19492038030214087,0.2024943712684046,0.04774932412368084,1244.3370860372595,19084.46106512743
3.3216608304152073,894.0396276195064,894.0240930045396,0.109590942737544,0.0,0.19506689732594298,0.2023474474583596,0.04774868133191234,1244.2342954397086,19096.758443401093
3.331665832916458,894.1176645298265,894.0866111583304,0.11006542390064739,0.0,0.19521364869262942,0.2022002884611396,0.04774803720608007,1244.1313402273659,19109.043652811662
3.341670835417709,894.1969022919698,894.149541128378,0.11054066393913346,0.0,0.19536063470821144,0.2020528939669397,0.04774739174019037,1244.028220181022,19121.316745370048
3.3516758379189593,894.2773952852992,894.2129468188348,0.11101666394240785,0.0,0.19550785570632614,0.20190526363788763,0.04774674492755138,1243.9249350614343,19133.57777409435
3.36168084042021,894.3591971275158,894.2768966159526,0.11149342509791808,0.0,0.19565531205041642,0.20175739710582777,0.04774609676071755,1243.8214846077478,19145.826792992186
3.3716858429214605,894.4423603173274,894.3414630081368,0.11197094869785128,0.0,0.195803004135767,0.20160929397025293,0.0477454472314375,1243.717868536014,19158.06385703525
3.3816908454227113,894.5269358814538,894.4067221091458,0.11244923614519872,0.0,0.19595093239134728,0.20146095379643078,0.047744796330605827,1243.6140865378572,19170.289022126282
3.391695847923962,894.6129730328161,894.472753093095,0.11292828895903917,0.0,0.19609909728141606,0.20131237611377198,0.047744144048220666,1243.5101382793068,19182.502345058652
3.4017008504252124,894.7005188464738,894.5396375535954,0.1134081087789082,0.0,0.1962474993068483,0.2011635604144805,0.047743490373347075,1243.406023399832,19194.703883468857
3.4117058529264632,894.7896179592844,894.6074588022952,0.11388869736814286,0.0,0.19639613900614947,0.2010145061525209,0.04774283529408788,1243.3017415116042,19206.89369578259
3.4217108554277136,894.8803122992091,894.6763011243854,0.11437005661608601,0.0,0.1965450169561226,0.2008652127429375,0.047742178797562096,1243.1972921990064,19219.071841154746
3.4317158579289644,894.9726408483909,894.7462490107918,0.11485218853910542,0.0,0.1966941337721743,0.2007156795615397,0.04774152086989164,1243.0926750184076,19231.2383794043
3.441720860430215,895.0666394433845,894.8173863865422,0.11533509528039129,0.0,0.19684349010824886,0.2005659059449652,0.047740861496196364,1242.987889498202,19243.39337094488
3.4517258629314655,895.1623406148973,894.8897958544644,0.11581877910852037,0.0,0.19699308665638632,0.20041589119112393,0.04774020066059758,1242.8829351391237,19255.53687671177
3.4617308654327164,895.2597734682003,894.9635579720908,0.11630324241480641,0.0,0.19714292414591073,0.20026563456001711,0.04773953834622974,1242.7778114148234,19267.668958086415
3.4717358679339667,895.3589636041995,895.0387505775228,0.11678848770948265,0.0,0.19729300334226255,0.2001151352749173,0.04773887453525991,1242.6725177727058,19279.78967681913
3.4817408704352175,895.4599330800522,895.1154481772032,0.1172745176167864,0.0,0.19744332504549622,0.19996439252388779,0.047738209208914674,1242.5670536350085,19291.899094951048
3.4917458729364683,895.5627004081339,895.193721406578,0.1177613348690077,0.0,0.1975938900884618,0.1998134054616221,0.04773754234751351,1242.4614184001052,19303.99727473606
3.5017508754377187,895.6672805901643,895.2736365703804,0.11824894229961946,0.0,0.19774469933470631,0.19966217321156765,0.04773687393050826,1242.355611444014,19316.084278563554
3.5117558779389695,895.7736851832458,895.3552552663759,0.11873734283559288,0.0,0.19789575367612638,0.19951069486830106,0.04773620393652726,1242.249632122083,19328.160168882787
3.52176088044022,895.8819223942946,895.438634093786,0.11922653948900225,0.0,0.1980470540304035,0.19935896950012333,0.047735532343423794,1242.143479770833,19340.22500812937
3.5317658829414706,895.9919971989863,895.5238244449421,0.11971653534802773,0.0,0.19819860133825523,0.19920699615184168,0.047734859128327485,1242.0371537099297,19352.278858654518
3.5417708854427215,896.1039114811881,895.6108723764781,0.12020733356745819,0.0,0.1983503965605327,0.19905477384770548,0.047734184267698244,1241.9306532442688,19364.321782657476
3.551775887943972,896.2176641888183,895.6998185544385,0.12069893735879025,0.0,0.19850244067519446,0.19890230159446803,0.04773350773738143,1241.8239776661453,19376.353842121564
3.5617808904452226,896.3332515028359,895.7906982676723,0.12119134997999831,0.0,0.1986547346741782,0.19874957838454968,0.04773282951266386,1241.7171262574986,19388.37509875403
3.571785892946473,896.4506670152958,895.8835415012188,0.12168457472505763,0.0,0.19880727956019625,0.19859660319927827,0.04773214956832983,1241.6100982922069,19400.385613930044
3.5817908954477238,896.56990191313,895.978373061549,0.12217861491327815,0.0,0.19896007634347102,0.19844337501218826,0.04773146787871634,1241.5028930384246,19412.38544864087
3.5917958979489746,896.690945164786,896.0752127457276,0.12267347387848737,0.0,0.19911312603842338,0.19828989279236695,0.04773078441776721,1241.395509760952,19424.374663446295
3.601800900450225,896.8137837070948,896.1740755465293,0.12316915495809015,0.0,0.1992664296603204,0.1981361555078395,0.04773009915908549,1241.287947723628,19436.353318431404
3.6118059029514757,896.9384026300843,896.2749718858505,0.12366566148201584,0.0,0.1994199882218873,0.19798216212898936,0.04772941207598398,1241.1802061917485,19448.321473167427
3.621810905452726,897.0647853577691,896.3779078691686,0.12416299676154449,0.0,0.199573802729879,0.19782791163201685,0.047728723141533126,1241.0722844345107,19460.279186676846
3.631815907953977,897.1929138236228,896.4828855553595,0.12466116407799653,0.0,0.19972787418160784,0.19767340300244038,0.04772803232860676,1240.9641817274814,19472.226517402407
3.6418209104552277,897.3227686392139,896.5899032355278,0.12516016667125235,0.0,0.19988220356141542,0.19751863523865154,0.047727339609924875,1240.8558973551037,19484.163523180097
3.651825912956478,897.4543292550144,896.698955715731,0.1256600077280484,0.0,0.20003679183707346,0.19736360735554,0.047726644958093666,1240.7474306132513,19496.090261215668
3.661830915457729,897.5875741127426,896.8100345994881,0.12616069036998517,0.0,0.20019163995609202,0.19720831838820846,0.04772594834564274,1240.6387808118402,19508.006788064697
3.6718359179589792,897.7224807887559,896.9231285664864,0.12666221764116828,0.0,0.20034674884191178,0.19705276739580216,0.0477252497450595,1240.5299472775205,19519.91315961583
3.68184092046023,897.8590261281952,897.0382236445234,0.12716459249538767,0.0,0.20050211938995055,0.19689695346548255,0.047724549128820605,1240.4209293564675,19531.809431077098
3.691845922961481,897.9971863697433,897.1553034722353,0.12766781778271913,0.0,0.20065775246346787,0.19674087571658078,0.04772384646942083,1240.3117264172924,19543.695656964985
3.701850925462731,898.1369372611057,897.2743495511929,0.1281718962354418,0.0,0.20081364888921502,0.19658453330496398,0.04772314173939918,1240.2023378541044,19555.571891096166
3.711855927963982,898.2782541652268,897.3953414856879,0.12867683045312994,0.0,0.20096980945282672,0.19642792542765894,0.047722434911362424,1240.0927630897445,19567.438186581676
3.7218609304652324,898.4211121574596,897.5182572092039,0.12918262288675364,0.0,0.20112623489390283,0.1962710513277835,0.047721725958006285,1239.983001579238,19579.294595823172
3.731865932966483,898.5654861139938,897.64307319709,0.129689275821621,0.0,0.2012829259007284,0.19611391029983838,0.04772101485213422,1239.873052813491,19591.141170511182
3.741870935467734,898.7113507918727,897.7697646651425,0.1301967913589689,0.0,0.2014398831045726,0.19595650169541912,0.0477203015666741,1239.7629163232834,19602.977961625205
3.7518759379689843,898.8586809009643,897.8983057540274,0.13070517139599036,0.0,0.20159710707350018,0.19579882492941336,0.04771958607469285,1239.652591683592,19614.805019435276
3.761880940470235,899.0074511682769,898.0286696996452,0.13121441760404542,0.0,0.20175459830561757,0.1956408794867632,0.0477188683494092,1239.5420785183117,19626.622393505004
3.7718859429714855,899.1576363950109,898.1608289898622,0.13172453140482926,0.0,0.20191235722168363,0.19548266492986152,0.04771814836420471,1239.4313765054144,19638.430132695896
3.7818909454727363,899.3092115067138,898.2947555078821,0.13223551394420754,0.0,0.202070384156994,0.19532418090667308,0.04771742609263313,1239.3204853826123,19650.228285172805
3.791895947973987,899.4621515969501,898.4304206627227,0.13274736606337673,0.0,0.20222867935243452,0.19516542715968663,0.04771670150842835,1239.2094049535979,19662.016898410257
3.8019009504752375,899.6164319648565,898.5677955073938,0.13326008826700875,0.0,0.20238724294459678,0.19500640353580315,0.04771597458551095,1239.098135094936,19673.796019199643
3.8119059529764883,899.772028146944,898.70685084537,0.1337736806879892,0.0,0.20254607495483534,0.19484710999728222,0.04771524529799352,1238.986675763692,19685.56569365706
3.8219109554777386,899.9289159434768,898.847557325959,0.13428814304831618,0.0,0.2027051752771319,0.19468754663388055,0.04771451362018503,1238.8750270058895,19697.325967231693
3.8319159579789894,900.0870714397582,898.9898855291849,0.13480347461564815,0.0,0.20286454366460774,0.19452771367634147,0.04771377952659396,1238.7631889659087,19709.07688471464
3.8419209604802402,900.2464710225627,899.1338060408042,0.13531967415502638,0.0,0.20302417971453768,0.19436761151138243,0.047713042991930785,1238.6511618969253,19720.8184902481
3.8519259629814906,900.4070913919629,899.279289517997,0.13583673987519396,0.0,0.20318408285168538,0.19420724069836115,0.047712303991109484,1238.5389461725222,19732.550827334864
3.8619309654827414,900.5689095688125,899.4263067463204,0.13635466936880297,0.0,0.20334425230974087,0.19404660198783802,0.04771156249924851,1238.4265422996166,19744.27393884785
3.8719359679839918,900.7319028980492,899.5748286884545,0.1368734595458105,0.0,0.2035046871106429,0.19388569634225447,0.0477108184916711,1238.3139509328655,19755.98786703977
3.8819409704852426,900.8960490479769,899.7248265252434,0.13739310655926404,0.0,0.20366538604153792,0.19372452495897358,0.047710071943905086,1238.2011728907107,19767.692653552724
3.891945972986493,901.0613260056417,899.8762716894838,0.13791360572258862,0.0,0.20382634762910068,0.19356308929595925,0.047709322831682235,1238.0882091732676,19779.388339427645
3.9019509754877437,901.227712068403,900.0291358928949,0.13843495141733234,0.0,0.2039875701108916,0.19340139110041818,0.04770857113093741,1237.9750609822713,19791.07496511361
3.9119559779889945,901.3951858317037,900.1833911466056,0.13895713699038478,0.0,0.20414905140344658,0.1932394324407092,0.04770781681780725,1237.861729743302,19802.75257047683
3.921960980490245,901.5637261730574,900.339009775471,0.13948015463952665,0.0,0.20431078906674277,0.19307721574187678,0.04770705986862878,1237.7482171305342,19814.42119480939
3.9319659829914957,901.7333122322615,900.4959644265439,0.1400039952858667,0.0,0.2044727802645943,0.19291474382525411,0.047706300259937794,1237.634525094318,19826.08087683749
3.941970985492746,901.9039233877492,900.6542280719157,0.14052864843177254,0.0,0.20463502172054343,0.19275201995257102,0.04770553796846731,1237.5206558919008,19837.731654729214
3.951975987993997,902.0755392289807,900.8137740061104,0.14105410200271623,0.0,0.20479750966875854,0.192589047875055,0.04770477297114593,1237.406612121626,19849.373566101724
3.9619809904952477,902.2481395247239,900.9745758381739,0.14158034217130594,0.0,0.20496023979940106,0.19242583188806317,0.04770400524509618,1237.2923967609815,19861.006648027753
3.971985992996498,902.4217041870464,901.1366074785595,0.14210735316149578,0.0,0.20512320719783889,0.19226237689186815,0.047703234767633274,1237.1780132089386,19872.63093704144
3.981990995497749,902.5962132307709,901.2998431208208,0.1426351170310935,0.0,0.205286406277122,0.19209868845918143,0.04770246151626379,1237.0634653329814,19884.246469143185
3.991995997998999,902.7716467281434,901.4642572181083,0.14316361343052877,0.0,0.20544983070308798,0.1919347729100475,0.04770168546868472,1236.948757521269,19895.853279803872
4.00200100050025,902.9479847584244,901.6298244544648,0.14369281933522035,0.0,0.20561347331127142,0.19177063739493388,0.04770090660278285,1236.8338947405102,19907.4514039678
4.012006003001501,903.1252073520452,901.7965197108066,0.1442227087491222,0.0,0.20577732601486537,0.19160628998676948,0.047700124896634534,1236.7188826000668,19919.040876054696
4.022011005502751,903.3032944289496,901.9643180254568,0.14475325237679904,0.0,0.20594137970291282,0.19144173978275358,0.04769934032850598,1236.6037274228652,19930.621729960396
4.0320160080040015,903.4822257306997,902.1331945490548,0.14528441726124403,0.0,0.20610562412786262,0.1912769970168,0.04769855287685404,1236.488436323714,19942.193999056235
4.042021010505253,903.6619807458877,902.3031244936288,0.14581616638432535,0.0,0.20627004778152325,0.1911120731835847,0.04769776252032767,1236.373017295706,19953.757716186945
4.052026013006503,903.8425386283802,902.4740830755686,0.14634845822718448,0.0,0.20643463775858356,0.19094698117502584,0.04769696923777007,1236.2574793052763,19965.312913666974
4.0620310155077535,904.0238781079759,902.6460454522511,0.1468812462881455,0.0,0.20659937960694275,0.19078173542995644,0.047696173008221744,1236.141832396454,19976.859623275108
4.072036018009005,904.2059773929369,902.8189866520341,0.14741447855465484,0.0,0.20676425716376837,0.1906163520980681,0.04769537381092422,1236.0260878050503,19988.39787624721
4.082041020510255,904.3888140639368,902.9928814973093,0.1479480969268617,0.0,0.20692925237654178,0.19045084921886915,0.04769457162532512,1235.9102580833066,19999.92770326687
4.092046023011505,904.5723649589864,903.1677045203176,0.14848203659062867,0.0,0.20709434510840286,0.19028524691634335,0.047693766431084,1235.7943572354786,20011.44913445389
4.102051025512757,904.7566060489696,903.3434298714591,0.149016225338257,0.0,0.20725951292726366,0.19011956760984106,0.04769295820807963,1235.6784008647253,20022.962199350357
4.112056028014007,904.9415123034477,903.5200312198292,0.14955058283553296,0.0,0.20742473087825627,0.18995383624163684,0.04769214693641861,1235.5624063316081,20034.466926904148
4.122061030515257,905.1270575466194,903.697481645828,0.15008501983548767,0.0,0.20758997123963796,0.18978808052103036,0.047691332596445334,1235.4463929241144,20045.96334544965
4.132066033016508,905.3132143036346,903.8757535258692,0.15061943734136862,0.0,0.20775520326292857,0.18962233118421667,0.04769051516875363,1235.330382038661,20057.451482685698
4.142071035517759,905.4999536373565,904.0548184091712,0.15115372572049574,0.0,0.20792039289780004,0.18945662226940496,0.04768969463420012,1235.2143973717207,20068.931365650278
4.152076038019009,905.6872449762045,904.2346468868958,0.15168776377465945,0.0,0.20808550250347382,0.18929099140543076,0.04768887097391934,1235.0984651208516,20080.403020692018
4.16208104052026,905.8750559340565,904.4152084541203,0.15222141777505652,0.0,0.20825049054910877,0.18912548011137897,0.04768804416934099,1234.9826141933875,20091.86647343823
4.172086043021511,906.0633521236595,904.5964713654112,0.15275454047288944,0.0,0.20841531130663393,0.1889601341037631,0.04768721420220911,1234.866876420398,20103.321748759405
4.182091045522761,906.2520969654516,904.7784024850546,0.15328697009988188,0.0,0.20857991454045055,0.18879500360683732,0.04768638105460363,1234.7512867728308,20114.768870730015
4.192096048024012,906.4412514945263,904.9609671335036,0.15381852937843846,0.0,0.20874424520012783,0.1886301436599149,0.04768554470896407,1234.6358835755645,20126.20786258567
4.202101050525263,906.6307741695192,905.1441289323052,0.1543490245678638,0.0,0.20890824312429454,0.1884656144134942,0.047684705148115764,1234.5207087136712,20137.63874667665
4.212106053026513,906.8206206872859,905.3278496498226,0.15487824457364335,0.0,0.20907184276410765,0.18830148140580716,0.0476838623552983,1234.40580782504,20149.061544417833
4.222111055527764,907.010743808662,905.5120890509892,0.15540596015591496,0.0,0.2092349729375164,0.1881378158085754,0.04768301631419655,1234.2912304715537,20160.476276235302
4.232116058029014,907.2010932014741,905.6968047549423,0.15593192327862984,0.0,0.2093975566272045,0.18797469462908878,0.04768216700897402,1234.1770302798461,20171.882961509797
4.242121060530265,907.3916153078932,905.8819521050306,0.1564558666464062,0.0,0.20955951083680344,0.18781220085401512,0.0476813144243084,1234.0632650414702,20183.28161851761
4.252126063031516,907.5822532439745,906.0674840562377,0.15697750348034886,0.0,0.20972074652129494,0.187650423519021,0.04768045854542938,1233.9499967613988,20194.672264369296
4.262131065532766,907.772946740162,906.2533510857812,0.15749652758918306,0.0,0.20988116860909756,0.1874894576867108,0.047679599358158235,1233.8372916426597,20206.054914947166
4.272136068034017,907.9636321324233,906.4395011334191,0.15801261379597323,0.0,0.2100406761345478,0.1873294043141711,0.047678736848948904,1233.7252199940895,20217.429584842423
4.282141070535268,908.1542424126548,906.6258795774107,0.15852541877334017,0.0,0.21019916249720508,0.1871703699936929,0.04767787100493018,1233.6138560497452,20228.79628729307
4.292146073036518,908.344707347416,906.8124292526117,0.15903458234049178,0.0,0.21035651586453194,0.18701246655011813,0.04767700181394852,1233.503277688461,20240.15503412374
4.302151075537768,908.5349536729972,906.9990905167367,0.1595397292662705,0.0,0.21051261973167362,0.1868558104810872,0.04767612926461076,1233.3935660439788,20251.505835688993
4.31215607803902,908.7249053731454,907.1858013700287,0.16004047160913762,0.0,0.21066735364793723,0.1867005222305866,0.047675253346326135,1233.2848049989734,20262.848700821614
4.32216108054027,908.9144840433698,907.3724976322738,0.16053641160695933,0.0,0.21082059411396442,0.18654672529180166,0.04767437404934676,1233.177080560188,20274.183636787504
4.33216608304152,909.1036093428723,907.5591131795575,0.16102714510815935,0.0,0.2109722156469796,0.1863945451418927,0.047673491364805795,1233.0704801165018,20285.510649248976
4.3421710855427715,909.2921995314588,907.7455802411695,0.1615122655082075,0.0,0.2111220920029279,0.18624410801987865,0.047672605284752145,1232.965091587724,20296.829742238246
4.352176088044022,909.4801720839185,907.9318297538848,0.161991368124308,0.0,0.2112700975346604,0.1860955395684716,0.04767171580218117,1232.8610024786262,20308.14091814249
4.362181090545272,909.6674443706227,908.1177917686938,0.1624640549144987,0.0,0.21141610865704868,0.18594896336897856,0.04767082291106033,1232.7582988585004,20319.44417770187
4.3721860930465235,909.853934388662,908.3033959022047,0.16292993941872466,0.0,0.21156000538101744,0.18580449940728114,0.04766992660634912,1232.6570642927115,20330.739520021634
4.382191095547774,910.0395615240365,908.4885718223283,0.16338865177594575,0.0,0.2117016728711863,0.18566226251620238,0.04766902688401252,1232.557378757804,20342.02694259898
4.392196098049024,910.2242473225608,908.6732497557158,0.1638398436557412,0.0,0.2118410029769692,0.18552236084441165,0.04766812374102757,1232.459317575097,20353.306441365086
4.402201100550275,910.4079162455558,908.8573610029682,0.1642831929362317,0.0,0.21197789568491862,0.18538489440408,0.04766721717538272,1232.362950399131,20364.578010741967
4.412206103051526,910.5904963851841,909.0408384463826,0.16471840795638718,0.0,0.21211226043893444,0.18524995375066583,0.04766630718606962,1232.2683402981406,20375.84164371393
4.422211105552776,910.7719201167188,909.223617035567,0.16514523119558544,0.0,0.21224401728265826,0.18511761884051134,0.047665393773067694,1232.1755429583818,20387.097331912104
4.4322161080540265,910.9521246674992,909.4056342372634,0.16556344225431752,0.0,0.21237309778490018,0.18498795810540078,0.04766447693732164,1232.0846060395716,20398.34506571067
4.442221110555278,911.1310525862638,909.5868304374574,0.1659728600425071,0.0,0.21249944571906043,0.1848610277731214,0.04766355668071257,1231.9955687016668,20409.584834332803
4.452226113056528,911.3086521015788,909.7671492863593,0.1663733441211439,0.0,0.21262301747968457,0.18473687145088538,0.047662633006023,1231.9084613147345,20420.81662596436
4.4622311155577785,911.4848773637052,909.9465379798313,0.1667647951848131,0.0,0.21274378223229767,0.18461551997547082,0.047661705916897,1231.8233053545848,20432.04042787279
4.47223611805903,911.6596885697383,910.1249474739577,0.16714715471215175,0.0,0.2128617218049072,0.18449699152169088,0.04766077541779606,1231.740113478333,20443.25622652914
4.48224112056028,911.8330519756536,910.3023326315828,0.16752040383858666,0.0,0.21297683033804954,0.18438129195231706,0.047659841513951404,1231.6588897681327,20454.464007730818
4.4922461230615305,912.0049398055301,910.4786523037876,0.167884561549972,0.0,0.21308911372399614,0.18426841537884125,0.04765890421131412,1231.5796301217554,20465.66375672291
4.502251125562781,912.175330070317,910.6538693508448,0.16823968230743203,0.0,0.2131985888693654,0.18415834489883173,0.047657963516503664,1231.5023227661684,20476.855458316193
4.512256128064032,912.344206310671,910.8279506088338,0.1685858532254232,0.0,0.21330528281901964,0.18405105347200276,0.04765701943675575,1231.4269488677196,20488.039097000114
4.5222611305652824,912.511557279613,911.0008668093033,0.16892319092938718,0.0,0.2134092317804821,0.18394650489576492,0.047656071979870214,1231.3534832116109,20499.214657049717
4.532266133066533,912.6773765809277,911.172592459991,0.1692518382158941,0.0,0.21351048008702883,0.1838446548421005,0.0476551211541596,1231.2818949240811,20510.38212262516
4.542271135567784,912.8416622784557,911.3431056947134,0.16957196062811064,0.0,0.21360907913448726,0.18374545192073327,0.04765416696839912,1231.2121482128987,20521.54147786348
4.552276138069034,913.0044164892444,911.512388099456,0.16988374304204942,0.0,0.21370508632137727,0.18364883873895657,0.04765320943177788,1231.1442031055249,20532.692706962014
4.562281140570285,913.165644973355,911.6804245224159,0.1701873863511778,0.0,0.21379856401958544,0.18355475293092982,0.047652248553852534,1231.0780161660077,20543.835794253395
4.572286143071536,913.3253567301183,911.847202874189,0.17048310431384583,0.0,0.21388957859558524,0.18346312813643004,0.04765128434450288,1231.0135411766707,20554.970724272192
4.582291145572786,913.4835636085734,912.0127139233471,0.17077112061151115,0.0,0.21397819949709873,0.18337389491416364,0.047650316813889954,1230.950729774219,20566.09748181347
4.592296148074037,913.6402799379936,912.176951091825,0.17105166615076123,0.0,0.21406449841544703,0.18328698157939138,0.04764934597241654,1230.8895320331283,20577.216051983654
4.602301150575287,913.795522182636,912.3399102536589,0.17132497662836887,0.0,0.2141485485295604,0.18320231495989425,0.04764837183069027,1230.8298969921564,20588.326420244146
4.612306153076538,913.9493086232956,912.5015895398337,0.17159129036670343,0.0,0.2142304238339235,0.18311982106800676,0.04764739439948907,1230.7717731223963,20599.428572448327
4.622311155577789,914.1016590666295,912.6619891508029,0.17185084641758747,0.0,0.21431019854986233,0.18303942568930973,0.047646413689729106,1230.7151087372802,20610.52249487238
4.632316158079039,914.2525945828281,912.8211111784306,0.17210388292649137,0.0,0.21438794661765617,0.1829610548904993,0.047645429712435,1230.659852346288,20621.60817424056
4.64232116058029,914.4021372709534,912.9789594381369,0.1723506357421455,0.0,0.21446374126484316,0.18288463545106415,0.04764444247871228,1230.6059529555935,20632.685597745567
4.652326163081541,914.5503100507011,913.1355393115879,0.17259133725364684,0.0,0.21453765464515495,0.18281009522433442,0.04764345199972201,1230.553360319509,20643.754753064513
4.662331165582791,914.6971364789865,913.2908576000093,0.1728262154350972,0.0,0.21460975754188336,0.1827373634341007,0.04764245828665739,1230.5020251470655,20654.815628370987
4.672336168084042,914.8426405895102,913.4449223879853,0.17305549307683096,0.0,0.21468011912917656,0.18266637091330384,0.04764146135072212,1230.4518992682367,20665.868212343787
4.682341170585293,914.9868467533263,913.5977429174461,0.17327938718194402,0.0,0.2147488067846571,0.18259705029140447,0.04764046120311069,1230.402935764424,20676.912494172684
4.692346173086543,915.1297795583627,913.7493294712001,0.17349810850901917,0.0,0.21481588594742917,0.1825293361363642,0.04763945785499009,1230.3550890673268,20687.948463561657
4.702351175587793,915.2714637059986,913.8996932656735,0.17371186124113228,0.0,0.2148814200152931,0.18246316505742097,0.047638451317483246,1230.3083150305085,20698.976110729876
4.712356178089045,915.4119239227797,914.0488463522913,0.1739208427629883,0.0,0.2149454702755311,0.1823984757742928,0.0476374416016537,1230.2625709775791,20709.995426410904
4.722361180590295,915.551184885481,914.1968015268644,0.1741252435300551,0.0,0.21500809586425673,0.18233520915782042,0.04763642871849165,1230.2178157304872,20721.00640185034
4.732366183091545,915.68927115788,914.3435722464056,0.1743252470150234,0.0,0.21506935374977235,0.18227330824660098,0.047635412678901166,1230.1740096210901,20732.009028802077
4.742371185592797,915.8262071377463,914.4891725528112,0.17452102971842579,0.0,0.21512929873584696,0.1822127182437033,0.047634393493688566,1230.1311144888496,20743.00329952355
4.752376188094047,915.9620170126814,914.6336170028845,0.1747127612315267,0.0,0.2151879834812236,0.1821533864971536,0.04763337117355178,1230.0890936672297,20753.989206770042
4.762381190595297,916.096724723648,914.7769206041071,0.17490060434263063,0.0,0.21524545853260746,0.18209526246694113,0.04763234572907065,1230.0479119607007,20764.96674378824
4.7723861930965485,916.2303539351192,914.9190987557613,0.17508471517730512,0.0,0.2153017723681851,0.18203829768149368,0.04763131717069817,1230.0075356144139,20775.935904309117
4.782391195597799,916.3629280108785,915.0601671949672,0.17526524336470517,0.0,0.21535697144924748,0.18198244568604918,0.04763028550875248,1229.9679322782315,20786.89668254042
4.792396198099049,916.4944699946614,915.2001419472017,0.1754423322239103,0.0,0.21541110027802804,0.1819276619848134,0.047629250753409666,1229.9290709664274,20797.849073158755
4.8024012006003,916.6250025949265,915.3390392809264,0.17561611896492543,0.0,0.21546420146009365,0.1818739039785642,0.0476282129146972,1229.8909220142214,20808.793071301363
4.812406203101551,916.7545481731241,915.4768756659829,0.17578673489971425,0.0,0.2155163157698521,0.1818211308991414,0.047627172002488116,1229.8534570321394,20819.728672557714
4.822411205602801,916.8831287349151,915.6136677354492,0.17595430565928424,0.0,0.2155674822179383,0.18176930374205608,0.04762612802649564,1229.8166488590714,20830.65587296092
4.832416208104052,917.0107659239326,915.749432250643,0.1761189514145959,0.0,0.2156177381197896,0.1817183851979131,0.04762508099626856,1229.7804715144966,20841.57466897908
4.842421210605303,917.1374810176656,915.884186069045,0.17628078709820877,0.0,0.21566711916444972,0.18166833958360407,0.047624030921186944,1229.744900150554,20852.48505750649
4.852426213106553,917.2632949250982,916.017946114905,0.17643992262429517,0.0,0.21571565948286744,0.18161913277400646,0.04762297781045845,1229.7099110044642,20863.387035854907
4.862431215607804,917.3882281858358,916.150729352308,0.17659646310564187,0.0,0.21576339171526046,0.18157073213461764,0.04762192167311504,1229.6754813516022,20874.280601744777
4.872436218109055,917.5123009704627,916.282552760503,0.17675050906633683,0.0,0.21581034707714022,0.1815231064555282,0.04762086251801013,1229.641589459506,20885.165753296547
4.882441220610305,917.6355330819329,916.4134333113203,0.17690215664916242,0.0,0.2158565554236941,0.18147622588703827,0.04761980035381606,1229.608214543028,20896.04248902202
4.8924462231115555,917.7579439577829,916.5433879485048,0.17705149781667326,0.0,0.21590204531220739,0.18143006187723415,0.04761873518902196,1229.575336720851,20906.9108078158
4.902451225612806,917.8795526730818,916.6724335688268,0.17719862054610233,0.0,0.21594684406256962,0.18138458711148076,0.04761766703193199,1229.5429369733454,20917.77070894679
4.912456228114057,918.0003779439637,916.8005870048397,0.1773436090173573,0.0,0.21599097781563623,0.181339775454059,0.04761659589066382,1229.5109971019092,20928.62219204982
4.9224612306153075,918.1204381316068,916.9278650091517,0.17748654379360057,0.0,0.21603447158928826,0.18129560189210564,0.04761552177314743,1229.4794996899248,20939.465257117365
4.932466233116558,918.2397512465898,917.0542842401017,0.17762750199450322,0.0,0.21607734933221787,0.18125204248182675,0.04761444468712417,1229.4484280652912,20950.29990449139
4.942471235617809,918.358334953541,917.1798612487286,0.1777665574620963,0.0,0.21611963397541595,0.18120907429700991,0.04761336464014609,1229.4177662645602,20961.126134855353
4.9524762381190595,918.4762065760274,917.3046124669474,0.17790378091935463,0.0,0.216161347481404,0.18116667537979197,0.04761228163957543,1229.3874989986443,20971.943949226286
4.96248124062031,918.5933831016042,917.4285541968264,0.17803924012138547,0.0,0.21620251089117024,0.18112482469372282,0.04761119569258435,1229.3576116201232,20982.75334894708
4.972486243121561,918.7098811870234,917.5517026009052,0.1781729999997784,0.0,0.2162431443689829,0.18108350207895188,0.047610106806154955,1229.3280900920304,20993.554335678837
4.982491245622811,918.825717163558,917.6740736934808,0.17830512280020486,0.0,0.21628326724510816,0.18104268820951053,0.047609014987079305,1229.2989209580971,21004.346911393364
4.992496248124062,918.9409070423782,917.7956833327748,0.17843566821317958,0.0,0.21632289805640526,0.18100236455271698,0.04760792024195979,1229.2700913144788,21015.13107836583
5.002501250625312,919.055466519964,917.9165472139243,0.17856469349836218,0.0,0.21636205458491617,0.18096251333058683,0.047606822577209565,1229.2415887828745,21025.906839167536
5.012506253126563,919.1694109835421,918.0366808627374,0.17869225360267632,0.0,0.21640075389453656,0.18092311748316267,0.0476057219990531,1229.2134014849853,21036.674196658867
5.022511255627814,919.2827555165176,918.1560996301563,0.17881840127244913,0.0,0.21643901236583002,0.1808841606337003,0.04760461851352695,1229.185518018267,21047.43315398232
5.032516258129064,919.3955149038859,918.2748186873721,0.17894318715978647,0.0,0.21647684572905296,0.18084562705564405,0.04760351212648056,1229.1579274329272,21058.18371455573
5.042521260630315,919.50770363763,918.3928530215567,0.17906665992361265,0.0,0.2165142690955235,0.180807501641259,0.047602402843577224,1229.1306192100765,21068.925882065592
5.052526263131566,919.6193359221041,918.5102174321772,0.17918886632562966,0.0,0.21655129698741282,0.1807697698718397,0.04760129067029513,1229.103583240979,21079.65966046052
5.062531265632816,919.7304256793568,918.626926527826,0.17930985132121505,0.0,0.2165879433659659,0.1807324177894908,0.04760017561192859,1229.0768098073988,21090.38505394483
5.072536268134067,919.8409865544004,918.7429947235361,0.1794296581455798,0.0,0.21662422165824988,0.18069543197037902,0.047599057673589205,1229.0502895629675,21101.10206697226
5.082541270635318,919.9510319204296,918.8584362385529,0.17954832839549995,0.0,0.21666014478252932,0.18065879949935867,0.04759793686020718,1229.0240135155123,21111.81070423984
5.092546273136568,920.0605748839783,918.9732650945226,0.17966590210677566,0.0,0.2166957251723145,0.18062250794592483,0.0475968131765328,1228.9979730103075,21122.510970681877
5.102551275637818,920.1696282899956,919.0874951140569,0.17978241782757484,0.0,0.21673097479913242,0.18058654534144253,0.047595686627137736,1228.9721597142159,21133.202871464033
5.11255627813907,920.2782047268767,919.2011399196687,0.17989791268809383,0.0,0.21676590519415417,0.18055090015752073,0.04759455721641669,1228.9465656006234,21143.886411977604
5.12256128064032,920.3863165314373,919.3142129330541,0.1800124224666404,0.0,0.21680052746871212,0.18051556128549612,0.04759342494858891,1228.9211829351536,21154.561597833836
5.13256628314157,920.4939757938112,919.4267273746747,0.18012598165227012,0.0,0.21683485233374677,0.18048051801698717,0.04759228982769978,1228.896004262122,21165.22843485838
5.142571285642822,920.6011943622656,919.5386962636147,0.18023862350410363,0.0,0.2168688901182233,0.1804457600254787,0.04759115185762252,1228.871022391711,21175.886929085904
5.152576288144072,920.7079838479555,919.6501324177096,0.1803503801076457,0.0,0.21690265078661738,0.18041127734883713,0.047590011042059864,1228.8462303877925,21186.53708675476
5.162581290645322,920.8143556295986,919.7610484539099,0.18046128242816462,0.0,0.21693614395548858,0.18037706037273815,0.047588867384545736,1228.8216215563843,21197.178914301832
5.172586293146573,920.9203208580717,919.8714567888601,0.18057136036130805,0.0,0.2169693789091954,0.18034309981495278,0.0475877208884471,1228.7971894347095,21207.81241835747
5.182591295647824,921.0258904609391,919.9813696396873,0.18068064278114926,0.0,0.217002364614813,0.18030938671043079,0.047586571556965614,1228.7729277808041,21218.4376057405
5.192596298149074,921.131075146934,920.090799024999,0.18078915758590614,0.0,0.21703510973632834,0.18027591239710664,0.047585419393139546,1228.7488305636346,21229.054483453376
5.202601300650325,921.2358854103464,920.1997567660361,0.1808969317412245,0.0,0.217067622648079,0.18024266850246198,0.04758426439984547,1228.724891953737,21239.663058677434
5.212606303151576,921.340331535344,920.3082544879856,0.18100399132130435,0.0,0.21709991144752264,0.18020964693075703,0.04758310657980022,1228.7011063143266,21250.263338768218
5.222611305652826,921.4444236002176,920.4163036214358,0.18111036154794383,0.0,0.21713198396735978,0.18017683985090943,0.04758194593556264,1228.6774681928557,21260.855331250958
5.232616308154077,921.5481714815614,920.523915403965,0.18121606682764554,0.0,0.2171638477870552,0.18014423968497353,0.04758078246953546,1228.65397231299,21271.439043816106
5.242621310655328,921.6515848583678,920.6311008818374,0.18132113078680634,0.0,0.21719551024376405,0.1801118390972157,0.047579616183967166,1228.6306135670006,21282.014484315023
5.252626313156578,921.7546732160614,920.7378709118135,0.18142557630521958,0.0,0.21722697844273464,0.18007963098371266,0.04757844708095379,1228.607387008521,21292.581660755688
5.262631315657829,921.8574458504794,920.8442361630745,0.18152942554794516,0.0,0.2172582592672039,0.1800476084624573,0.047577275162440806,1228.5842878456558,21303.140581298558
5.272636318159079,921.9599118717783,920.9502071192269,0.181632699995641,0.0,0.2172893593878155,0.18001576486394147,0.047576100430225046,1228.5613114344226,21313.691254252506
5.28264132066033,922.0620802082624,921.0557940803802,0.1817354204733296,0.0,0.21732028527155223,0.17998409372222512,0.04757492288595644,1228.5384532725343,21324.23368807081
5.292646323161581,922.1639596101498,921.1610071652965,0.18183760717780934,0.0,0.21735104319024723,0.17995258876642595,0.04757374253113992,1228.5157089934705,21334.767891347317
5.302651325662831,922.2655586532745,921.2658563136033,0.1819392797037427,0.0,0.2173816392286849,0.1799212439126197,0.04757255936713729,1228.493074360838,21345.293872812614
5.312656328164082,922.3668857427122,921.370351288054,0.1820404570684609,0.0,0.2174120792923031,0.17989005325613944,0.04757137339516897,1228.470545263009,21355.811641330307
5.3226613306653325,922.4679491163429,921.4745016768347,0.1821411577355718,0.0,0.2174423691145238,0.17985901106424546,0.047570184616315854,1228.4481177080158,21366.321205893422
5.332666333166583,922.5687568483722,921.5783168959366,0.18224139963755287,0.0,0.21747251426376873,0.17982811176911143,0.04756899303152113,1228.4257878186665,21376.822575620863
5.342671335667834,922.6693168527731,921.6818061915492,0.18234120019719224,0.0,0.21750252015011717,0.1797973499611672,0.04756779864159208,1228.4035518279109,21387.315759753892
5.3526763381690845,922.769636886667,921.7849786424838,0.1824405763480433,0.0,0.21753239203165786,0.1797667203827483,0.04756660144720182,1228.3814060744162,21397.80076765278
5.362681340670335,922.8697245536416,921.8878431626213,0.18253954455392862,0.0,0.2175621350205455,0.17973621792204056,0.04756540144889109,1228.359346998352,21408.277608793505
5.372686343171585,922.9695873070085,921.9904085033788,0.18263812082751557,0.0,0.21759175408876896,0.17970583760731282,0.04756419864707001,1228.3373711373747,21418.74629276449
5.3826913456728365,923.0692324529964,922.09268325619,0.182736320748057,0.0,0.21762125407366062,0.17967557460140895,0.047562993042019816,1228.3154751227905,21429.206829263443
5.392696348174087,923.1686671538808,922.1946758549892,0.18283415947827675,0.0,0.21765063968313972,0.1796454241965054,0.0475617846338945,1228.2936556759068,21439.659228094326
5.402701350675337,923.2678984310751,922.2963945787283,0.1829316517805618,0.0,0.21767991550074095,0.17961538180908357,0.047560573422722616,1228.2719096045307,21450.103499164274
5.412706353176588,923.366933168156,922.397847553884,0.18302881203240054,0.0,0.2177090859904086,0.1795854429751371,0.047559359408408865,1228.2502337996318,21460.53965248068
5.422711355677839,923.4657781138259,922.4990427569645,0.18312565424109054,0.0,0.21773815550106404,0.179555603345605,0.04755814259073579,1228.228625232163,21470.967698148303
5.432716358179089,923.5644398848215,922.5999880170141,0.18322219205781284,0.0,0.2177671282709766,0.1795258586820023,0.04755692296936544,1228.207080950018,21481.387646366467
5.44272136068034,923.6629249687657,922.7006910181107,0.18331843879106705,0.0,0.2177960084319358,0.17949620485224824,0.047555700543840916,1228.1855980751263,21491.79950742632
5.452726363181591,923.7612397269655,922.8011593018547,0.18341440741953224,0.0,0.2178248000132455,0.17946663782667366,0.047554475313588015,1228.1641738006736,21502.203291708152
5.462731365682841,923.8593903971458,922.9014002698399,0.1835101106043086,0.0,0.21785350694552566,0.17943715367421995,0.047553247277916766,1228.1428053884545,21512.599009678775
5.4727363681840915,923.9573830961509,923.0014211861323,0.18360556070070164,0.0,0.21788213306437196,0.17940774855878036,0.04755201643602301,1228.121490166328,21522.98667188897
5.482741370685343,924.0552238225858,923.1012291797267,0.1837007697694683,0.0,0.2179106821138489,0.17937841873570828,0.04755078278698991,1228.1002255257822,21533.366288971003
5.492746373186593,924.152918459402,923.2008312469808,0.18379574958755854,0.0,0.2179391577498253,0.17934916054848205,0.04754954632978945,1228.0790089196169,21543.73787163616
5.5027513756878434,924.250472776434,923.3002342540357,0.183890511658422,0.0,0.21796756354317576,0.1793199704255051,0.04754830706328394,1228.0578378597113,21554.101430672392
5.512756378189095,924.3478924328864,923.3994449392128,0.18398506722185506,0.0,0.2179959029828386,0.17929084487704827,0.04754706498622743,1228.0367099148993,21564.45697694198
5.522761380690345,924.4451829797642,923.4984699153878,0.18407942726342136,0.0,0.218024179478742,0.17926178049232525,0.04754582009726723,1228.0156227089312,21574.804521379294
5.532766383191595,924.5423498622587,923.5973156723383,0.18417360252349452,0.0,0.21805239636461235,0.17923277393668466,0.047544572394945195,1227.9945739185184,21585.144074988555
5.542771385692847,924.639398422093,923.6959885790824,0.18426760350592625,0.0,0.2180805569006665,0.17920382194891882,0.047543321877699225,1227.9735612714617,21595.4756488417
5.552776388194097,924.7363342237637,923.7944948550658,0.1843614428545983,0.0,0.21810866427549302,0.1791749213393879,0.04754206927992368,1227.9525820327497,21605.799254077192
5.562781390695347,924.8331642962426,923.8928405635377,0.18445514388003198,0.0,0.21813672159409306,0.17914606900207714,0.047540818731755655,1227.9316311608482,21616.114901918805
5.572786393196598,924.929894103181,923.9910319497569,0.18454871818184926,0.0,0.2181647318823851,0.17911726191008484,0.04753957080626148,1227.910706146616,21626.422603673833
5.582791395697849,925.0265287611286,924.0890751719821,0.1846421753070956,0.0,0.21819269810371106,0.1790884970990245,0.04753832550159329,1227.8898049247066,21636.72237071264
5.592796398199099,925.1230732893756,924.1869762710678,0.18473552461162432,0.0,0.2182206231613998,0.17905977166445994,0.04753708281638404,1227.8689254710628,21647.01421446601
5.60280140070035,925.2195326121964,924.2847411729186,0.1848287752665799,0.0,0.2182485099007894,0.1790310827598831,0.04753584274974025,1227.8480658015153,21657.298146423214
5.612806403201601,925.3159115610581,924.3823756909195,0.184921936264645,0.0,0.21827636111117651,0.17900242759476637,0.047534605301234774,1227.8272239704313,21667.574178130093
5.622811405702851,925.4122148767776,924.4798855283226,0.18501501642604032,0.0,0.2183041795276883,0.1789738034326907,0.0475333704708999,1227.8063980694199,21677.842321187174
5.632816408204102,925.5084472116264,924.5772762805892,0.18510802440425744,0.0,0.21833196783307168,0.178945207589558,0.04753213825922054,1227.7855862260913,21688.102587247882
5.642821410705353,925.6046131313904,924.6745534376935,0.1852009686915863,0.0,0.21835972865941813,0.17891663743186634,0.047530908667127544,1227.7647866028628,21698.35498801676
5.652826413206603,925.7007171173866,924.7717223863881,0.18529385762442302,0.0,0.2183874645898207,0.1788880903750545,0.04752968169599122,1227.7439973958124,21708.59953524773
5.662831415707854,925.7967635684315,924.8687884124262,0.18538669938836672,0.0,0.21841517815996453,0.17885956388191152,0.04752845734761497,1227.723216833577,21718.836240742443
5.672836418209104,925.8927568027635,924.9657567027424,0.18547950202311184,0.0,0.21844287185965458,0.17883105546105044,0.04752723562422911,1227.7024431762939,21729.06511634862
5.682841420710355,925.9887010599329,925.0626323476057,0.18557227342717827,0.0,0.2184705481342921,0.17880256266543193,0.047526016528484816,1227.6816747145806,21739.28617395846
5.692846423211606,926.0846005026456,925.15942034273,0.1856650213624364,0.0,0.21849820938628747,0.17877408309095255,0.04752480006344816,1227.6609097685562,21749.499425507074
5.702851425712856,926.1804592185647,925.2561255913439,0.1857577534584665,0.0,0.21852585797642196,0.1787456143750838,0.047523586232594325,1227.6401466868983,21759.70488297099
5.712856428214107,926.276281222075,925.3527529062242,0.18585047721677872,0.0,0.2185534962251649,0.17871715419555528,0.047522375039801945,1227.6193838459326,21769.902558366644
5.722861430715358,926.3720704560012,925.449307011687,0.18594320001481945,0.0,0.2185811264139256,0.17868870026910394,0.04752116648934762,1227.5986196487663,21780.092463748973
5.732866433216608,926.4678307932924,925.5457925455452,0.1860359291098766,0.0,0.21860875078627273,0.1786602503502548,0.0475199605859005,1227.5778525244448,21790.27461120999
5.742871435717859,926.5635660386629,925.6422140610196,0.18612867164280122,0.0,0.21863637154909704,0.17863180223015931,0.04751875733451708,1227.557080927146,21800.449012877416
5.7528764382191095,926.6592799302043,925.7385760286276,0.1862214346416295,0.0,0.21866399087374283,0.17860335373546463,0.047517556740636055,1227.5363033354008,21810.615680913357
5.76288144072036,926.7549761409613,925.8348828380311,0.1863142250250467,0.0,0.21869161089709022,0.17857490272723142,0.04751635881007325,1227.5155182513408,21820.77462751302
5.77288644322161,926.8506582804664,925.9311387998465,0.18640704960573332,0.0,0.21871923372260066,0.1785464470998895,0.04751516354901678,1227.4947241999773,21830.925864903405
5.7828914457228615,926.9463298962436,926.0273481474186,0.18649991509358654,0.0,0.2187468614213237,0.17851798478023156,0.04751397096402225,1227.4739197285057,21841.069405342118
5.792896448224112,927.0419944752746,926.123515038559,0.18659282809882238,0.0,0.2187744960328663,0.17848951372644417,0.04751278106200813,1227.453103405634,21851.20526111615
5.802901450725362,927.1376554454334,926.2196435572506,0.18668579513496622,0.0,0.21880213956632746,0.17846103192717402,0.0475115938502512,1227.4322738209373,21861.333444540698
5.8129064532266135,927.2333161768838,926.3157377153119,0.18677882262173204,0.0,0.2188297940011984,0.17843253740062825,0.04751040933638215,1227.4114295842348,21871.45396795805
5.822911455727864,927.3289799834507,926.4118014540359,0.1868719168878044,0.0,0.21885746128823177,0.17840402819370554,0.047509227528381236,1227.3905693249906,21881.56684373647
5.832916458229114,927.4246501239633,926.5078386457978,0.18696508417353827,0.0,0.2188851433502861,0.1783755023811526,0.04750804843457409,1227.3696916917277,21891.6720842691
5.8429214607303654,927.5203298035585,926.6038530956221,0.1870583306335157,0.0,0.21891284208312484,0.1783469580647654,0.04750687206362755,1227.348795351478,21901.76970197294
5.852926463231616,927.6160221749624,926.6998485427229,0.18715166233908065,0.0,0.2189405593562089,0.17831839337259714,0.04750569842454575,1227.3278789892333,21911.859709287775
5.862931465732866,927.7117303397353,926.7958286620069,0.18724508528071507,0.0,0.21896829701343984,0.17828980645821565,0.04750452752666612,1227.306941307433,21921.942118675237
5.8729364682341165,927.8074573494919,926.8917970655489,0.18733860537038124,0.0,0.21899605687389198,0.17826119549997166,0.04750335937965563,1227.2859810254558,21932.0169426178
5.882941470735368,927.9032062070877,926.9877573040288,0.1874322284437457,0.0,0.21902384073250833,0.17823255870030358,0.04750219399350711,1227.2649968791416,21942.084193617822
5.892946473236618,927.9989798677859,927.0837128681494,0.18752596026236237,0.0,0.21905165036078292,0.1782038942850552,0.04750103137853564,1227.243987620319,21952.143884196656
5.9029514757378685,928.0947812403955,927.1796671900198,0.18761980651576313,0.0,0.21907948750741502,0.1781752005028224,0.047499871545374966,1227.2229520163535,21962.19602689373
5.91295647823912,928.190613188382,927.275623644511,0.18771377282348065,0.0,0.21910735389894173,0.17814647562432073,0.04749871450497411,1227.2018888497103,21972.240634265687
5.92296148074037,928.2864785309494,927.3715855505772,0.18780786473698147,0.0,0.21913525124034278,0.17811771794178108,0.047497560268594,1227.1807969175366,21982.277718885533
5.9329664832416205,928.3823800441019,927.467556172555,0.18790208774157977,0.0,0.21916318121563907,0.17808892576835153,0.047496408847804254,1227.159675031249,21992.3072933418
5.942971485742872,928.478320461677,927.56353872143,0.1879964472582399,0.0,0.21919114548845678,0.17806009743753382,0.04749526025447997,1227.1385220161437,22002.329370237752
5.952976488244122,928.5743024763514,927.659536356072,0.18809094864533277,0.0,0.21921914570257672,0.1780312313026341,0.047494114500798705,1227.1173367110157,22012.34396219061
5.962981490745372,928.6703287406314,927.7555521844533,0.18818559720034517,0.0,0.2192471834824694,0.17800232573622857,0.047492971599237405,1227.0961179677915,22022.35108183075
5.972986493246623,928.766401867815,927.8515892648362,0.1882803981615205,0.0,0.2192752604338083,0.17797337912965036,0.047491831562569524,1227.0748646511736,22032.35074180102
5.982991495747874,928.8625244329379,927.9476506069357,0.1883753567094668,0.0,0.219303378143973,0.17794438989248687,0.04749069440386213,1227.053575638293,22042.342954755964
5.992996498249124,928.9586989736885,928.0437391730545,0.18847047796868313,0.0,0.21933153818252693,0.17791535645210227,0.047489560136473166,1227.0322498183805,22052.32773336114
6.003001500750375,929.0549279913047,928.1398578791927,0.18856576700903704,0.0,0.21935974210168005,0.17788627725317543,0.047488428774048734,1227.0108860924452,22062.30509029245
6.013006503251626,929.1512139514509,928.2360095961344,0.18866122884721678,0.0,0.21938799143674279,0.17785715075724598,0.04748730033052046,1226.9894833729643,22072.27503823545
6.023011505752876,929.2475592850726,928.3321971505065,0.1887568684481213,0.0,0.21941628770656163,0.1778279754422792,0.047486174820103,1226.9680405835788,22082.23758988472
6.033016508254127,929.3439663892298,928.4284233258182,0.18885269072620062,0.0,0.21944463241393827,0.17779874980224736,0.0474850522572915,1226.9465566588074,22092.192757943216
6.043021510755377,929.4404376279155,928.5246908634774,0.1889487005467626,0.0,0.21947302704603897,0.17776947234672033,0.04748393265685922,1226.9250305437624,22102.14055512168
6.053026513256628,929.5369753328547,928.6210024637852,0.18904490272725727,0.0,0.21950147307479648,0.17774014160046422,0.04748281603385512,1226.903461193872,22112.08099413803
6.063031515757879,929.6335818042774,928.7173607869037,0.18914130203846594,0.0,0.21952997195728216,0.17771075610306947,0.04748170240360161,1226.881847574625,22122.014087716772
6.073036518259129,929.7302593116804,928.8137684538049,0.1892379032057046,0.0,0.21955852513608304,0.17768131440857426,0.04748059178169237,1226.8601886613085,22131.93984858845
6.08304152076038,929.8270100945692,928.9102280471986,0.1893347109099756,0.0,0.2195871340396619,0.1776518150851041,0.04747948418399009,1226.8384834387616,22141.858289489097
6.093046523261631,929.9238363631781,929.0067421124343,0.18943172978906075,0.0,0.2196158000826999,0.17762225671453033,0.047478379626624476,1226.8167309011376,22151.769423159694
6.103051525762881,930.0207402991749,929.1033131583862,0.1895289644385875,0.0,0.21964452466643034,0.17759263789213603,0.047477278125990174,1226.794930051675,22161.673262345652
6.113056528264132,930.11772405636,929.1999436583252,0.18962641941312483,0.0,0.21967330917898145,0.17756295722627355,0.04747617969874476,1226.773079902458,22171.569819796303
6.123061530765383,930.2147897613311,929.2966360507588,0.18972409922713002,0.0,0.2197021549956732,0.1775332133380682,0.047475084361806835,1226.7511794742156,22181.459108264433
6.133066533266633,930.3119395141464,929.3933927402611,0.1898220083559705,0.0,0.21973106347933713,0.17750340486109847,0.047473992132354155,1226.7292277960985,22191.341140505763
6.143071535767883,930.4091753889636,929.4902160982782,0.1899201512368542,0.0,0.21976003598060748,0.17747353044110503,0.0474729030278218,1226.7072239054787,22201.21592927853
6.153076538269135,930.5064994346673,929.5871084639184,0.19001853226975635,0.0,0.21978907383821172,0.17744358873570082,0.047471817065900423,1226.6851668477502,22211.083487343003
6.163081540770385,930.6039136754799,929.68407214472,0.19011715581831137,0.0,0.21981817837924944,0.17741357841409183,0.04747073426453451,1226.6630556761343,22220.94382746106
6.173086543271635,930.7014201115577,929.781109417405,0.19021602621067368,0.0,0.21984735091946217,0.17738349815680804,0.047469654641920794,1226.6408894514955,22230.79696239576
6.1830915457728866,930.7990207195771,929.8782225286174,0.19031514774037253,0.0,0.21987659276350083,0.17735334665543565,0.047468578216506546,1226.6186672421554,22240.64290491092
6.193096548274137,930.896717453302,929.9754136956412,0.1904145246671082,0.0,0.21990590520517528,0.17732312261236818,0.047467505006988056,1226.596388123723,22250.48166777074
6.203101550775387,930.9945122441407,930.0726851071034,0.19051416121756246,0.0,0.21993528952770788,0.17729282474055288,0.04746643503230912,1226.5740511789163,22260.313263739365
6.2131065532766385,931.0924070016904,930.1700389236607,0.19061406158617045,0.0,0.21996474700397525,0.17726245176324926,0.047465368311659525,1226.5516554973985,22270.137705580542
6.223111555777889,931.1904036142606,930.2674772786669,0.19071422993582945,0.0,0.21999427889673023,0.177232002413807,0.047464304864473617,1226.5292001756231,22279.955006057255
6.233116558279139,931.2885039493958,930.365002278829,0.190814670398667,0.0,0.2200238864588423,0.1772014754354261,0.047463244710428995,1226.506684316669,22289.765177931335
6.24312156078039,931.3867098543756,930.4626160048454,0.19091538707671288,0.0,0.2200535709335081,0.1771708695809464,0.047462187869445074,1226.4841070300943,22299.56823396313
6.253126563281641,931.4850231567129,930.5603205120331,0.19101638404261187,0.0,0.22008333355447438,0.17714018361262468,0.04746113436168186,1226.4614674317834,22309.36418691118
6.263131565782891,931.5834456646322,930.6581178309374,0.1911176653402696,0.0,0.2201131755462404,0.17710941630193253,0.04746008420753862,1226.4387646438072,22319.153049531855
6.273136568284142,931.6819791675397,930.756009967928,0.19121923498549592,0.0,0.22014309812425936,0.17707856642935493,0.04745903742765265,1226.4159977942827,22328.934834579064
6.283141570785393,931.7806254364818,930.8539989057807,0.19132109696663707,0.0,0.2201731024951362,0.17704763278419286,0.04745799404289817,1226.3931660172393,22338.709554803943
6.293146573286643,931.8793862245965,930.9520866042485,0.19142325524520565,0.0,0.2202031898568248,0.17701661416436595,0.04745695407438507,1226.3702684524799,22348.47722295453
6.3031515757878935,931.9782632675452,931.0502750006128,0.1915257137564458,0.0,0.22023336139880506,0.1769855093762357,0.04745591754345786,1226.3473042454598,22358.2378517755
6.313156578289145,932.0772582839419,931.1485660102284,0.1916284764099242,0.0,0.2202636183022677,0.1769543172344207,0.047454884471694644,1226.3242725471596,22367.991454007868
6.323161580790395,932.1763729757695,931.2469615270521,0.19173154709008494,0.0,0.220293961740288,0.17692303656162317,0.04745385488090597,1226.3011725139647,22377.738042388733
6.3331665832916455,932.2756090287903,931.3454634241641,0.19183492965681462,0.0,0.2203243928780029,0.17689166618845184,0.04745282879313388,1226.2780033075437,22387.477629650966
6.343171585792896,932.3749681129405,931.4440735542706,0.1919386279459565,0.0,0.22035491287277148,0.1768602049532616,0.04745180623065091,1226.2547640947366,22397.210228523018
6.353176588294147,932.4744518827199,931.5427937501994,0.19204264576984373,0.0,0.2203855228743422,0.17682865170198642,0.047450787215959155,1226.2314540474395,22406.935851728595
6.3631815907953975,932.574061977571,931.6416258253817,0.19214698691779436,0.0,0.2204162240250077,0.1767970052879847,0.04744977177178935,1226.2080723424988,22416.654511986475
6.373186593296648,932.6738000222482,931.7405715743218,0.19225165515660847,0.0,0.22044701745976025,0.17676526457188363,0.0474487599211,1226.1846181616036,22426.366222010234
6.383191595797899,932.7736676271797,931.839632773059,0.19235665423104928,0.0,0.22047790430644235,0.1767334284214291,0.04744775168707655,1226.161090691179,22436.07099450805
6.393196598299149,932.8736663888211,931.9388111796158,0.19246198786430502,0.0,0.2205088856858913,0.176701495711341,0.04744674709313051,1226.1374891222918,22445.76884218243
6.4032016008004,932.9737978900014,932.0381085344394,0.19256765975845688,0.0,0.2205399627120855,0.1766694653231669,0.04744574616289865,1226.1138126505434,22455.459777730066
6.413206603301651,933.074063700259,932.1375265608294,0.1926736735949123,0.0,0.22057113649227997,0.17663733614514684,0.04744474892024231,1226.09006047598,22465.143813841554
6.423211605802901,933.1744653761729,932.2370669653582,0.19278003303485278,0.0,0.22060240812714652,0.1766051070720732,0.04744375538924656,1226.066231802995,22474.820963201237
6.433216608304152,933.2750044616818,932.3367314382783,0.1928867417196444,0.0,0.22063377871090203,0.1765727770051622,0.04744276559421953,1226.0423258402395,22484.491238487
6.443221610805402,933.3756824883995,932.4365216539235,0.19299380327125734,0.0,0.2206652493314397,0.17654034485192313,0.04744177955969175,1226.0183418005324,22494.154652370067
6.453226613306653,933.476500975922,932.5364392710983,0.19310122129267598,0.0,0.22069682107045718,0.1765078095260301,0.0474407973104154,1225.9942789007714,22503.81121751485
6.463231615807904,933.5774614321285,932.6364859334614,0.19320899936829347,0.0,0.22072849500358002,0.17647516994719845,0.04743981887136379,1225.9701363618476,22513.460946578707
6.473236618309154,933.6785653534723,932.7366632698971,0.1933171410642841,0.0,0.2207602722004781,0.1764424250410689,0.04743884426773061,1225.9459134085666,22523.103852211865
6.483241620810405,933.7798142252707,932.8369728948819,0.19342564992900127,0.0,0.22079215372498986,0.1764095737390828,0.0474378735249294,1225.92160926956,22532.739947057165
6.493246623311656,933.8812095219824,932.9374164088388,0.19353452949333133,0.0,0.2208241406352331,0.1763766149783717,0.047436906668592925,1225.8972231772102,22542.36924374993
6.503251625812906,933.9827527074842,933.0379953984864,0.1936437832710693,0.0,0.2208562339837222,0.1763435477016401,0.04743594372457271,1225.8727543675693,22551.991754917846
6.513256628314157,934.0844452353348,933.1387114371769,0.19375341475925761,0.0,0.22088843481747408,0.17631037085705956,0.0474349847189384,1225.848202080286,22561.607493180763
6.523261630815408,934.1862885490385,933.2395660852295,0.1938634274385391,0.0,0.2209207441781183,0.1762770833981586,0.047434029677977343,1225.8235655585288,22571.21647115057
6.533266633316658,934.2882840823008,933.3405608902547,0.1939738247734969,0.0,0.22095316310200352,0.17624368428371626,0.04743307862819405,1225.7988440489125,22580.818701431042
6.543271635817908,934.3904332592792,933.441697387472,0.19408461021298934,0.0,0.2209856926203018,0.176210172477658,0.047432131596309685,1225.774036801427,22590.41419661773
6.55327663831916,934.4927374948268,933.5429771000205,0.19419578719046876,0.0,0.22101833375910823,0.1761765469489558,0.04743118860926169,1225.749143069366,22600.002969297817
6.56328164082041,934.5951981947334,933.6444015392619,0.19430735912431163,0.0,0.22105108753954417,0.1761428066715252,0.04743024969420323,1225.7241621092583,22609.585032049963
6.57328664332166,934.697816755958,933.7459722050767,0.1944193294181275,0.0,0.22108395497785346,0.17610895062412904,0.047429314878502896,1225.699093180799,22619.16039744423
6.583291645822912,934.8005945668572,933.8476905861531,0.1945317014610527,0.0,0.22111693708549418,0.17607497779028564,0.047428384189744224,1225.6739355467873,22628.72907804194
6.593296648324162,934.9035330074095,933.9495581602705,0.19464447862807507,0.0,0.22115003486924004,0.1760408871581675,0.04742745765572534,1225.6486884730557,22638.291086395555
6.603301650825412,935.0066334494356,934.0515763945767,0.19475766428031363,0.0,0.22118324933126743,0.17600667772051426,0.047426535304458575,1225.6233512284098,22647.84643504859
6.613306653326664,935.1098972568121,934.153746745859,0.19487126176531963,0.0,0.22121658146924966,0.17597234847453846,0.04742561716417012,1225.5979230845624,22657.395136535473
6.623311655827914,935.2133257856807,934.2560706608089,0.19498527441735436,0.0,0.22125003227644333,0.1759378984218392,0.047424703263299645,1225.5724033160743,22666.93720338149
6.633316658329164,935.3169203846556,934.3585495762811,0.19509970555767983,0.0,0.2212836027417792,0.17590332656831134,0.04742379363050002,1225.5467912002925,22676.472648102645
6.643321660830415,935.420682395023,934.4611849195472,0.19521455849482675,0.0,0.22131729384994545,0.175868631924062,0.04742288829463696,1225.5210860172892,22686.00148320559
6.653326663331666,935.5246131509392,934.5639781085428,0.19532983652487704,0.0,0.22135110658147605,0.1758338135033224,0.04742198728478877,1225.495287049803,22695.523721187532
6.663331665832916,935.6287139796196,934.6669305521079,0.19544554293170743,0.0,0.22138504191282654,0.17579887032437203,0.047421090630246035,1225.4693935831865,22705.03937453613
6.673336668334167,935.732986201534,934.770043650229,0.19556168098728957,0.0,0.22141910081646746,0.17576380140944523,0.04742019836051133,1225.4434049053395,22714.548455729437
6.683341670835418,935.8374311305877,934.873318794267,0.19567825395193209,0.0,0.22145328426095998,0.1757286057846555,0.04741931050529904,1225.417320306659,22724.050977235802
6.693346673336668,935.9420500743016,934.9767573671854,0.1957952650745178,0.0,0.22148759321102965,0.1756932824799218,0.04741842709453495,1225.3911390799858,22733.546951513807
6.703351675837919,936.0468443339945,935.0803607437748,0.19591271759279508,0.0,0.2215220286276572,0.17565783052887768,0.04741754815835617,1225.364860520542,22743.03639101217
6.71335667833917,936.1518152049518,935.1841302908668,0.19603061473359312,0.0,0.22155659146814555,0.1756222489688043,0.04741667372711081,1225.3384839258858,22752.519308169714
6.72336168084042,936.2569639766009,935.2880673675504,0.19614895971308868,0.0,0.22159128268620282,0.17558653684054729,0.04741580383135781,1225.3120085958524,22761.99571541527
6.7333666833416705,936.3622919326741,935.392173325377,0.19626775573703173,0.0,0.2216261032320126,0.17555069318844665,0.04741493850186673,1225.285433832505,22771.465625167606
6.743371685842921,936.4678003513752,935.4964495085671,0.19638700600099943,0.0,0.221661054052313,0.17551471706025745,0.04741407776961755,1225.2587589400814,22780.929049835406
6.753376688344172,936.5734905055405,935.6008972542098,0.19650671369062492,0.0,0.22169613609046795,0.17547860750707886,0.04741322166580046,1225.2319832249427,22790.38600181717
6.7633816908454225,936.6793636627962,935.7055178924593,0.19662688198183723,0.0,0.2217313502865416,0.17544236358327928,0.04741237022181574,1225.2051059955231,22799.83649350118
6.773386693346673,936.7854210857117,935.8103127467245,0.19674751404107604,0.0,0.2217666975773652,0.1754059843464296,0.04741152346927351,1225.1781265622815,22809.28053726546
6.783391695847924,936.8916640319546,935.9152831338608,0.19686861302554468,0.0,0.2218021788966159,0.17536946885722451,0.047410681439993656,1225.1510442376489,22818.718145477687
6.7933966983491745,936.998093754436,936.0204303643496,0.19699018208340763,0.0,0.22183779517487817,0.175332816179421,0.0474098441660056,1225.1238583359834,22828.149330495187
6.803401700850425,937.1047115014596,936.1257557424829,0.19711222435403752,0.0,0.2218735473397204,0.17529602537976155,0.047409011679548245,1225.0965681735197,22837.57410466487
6.813406703351676,937.2115185168644,936.2312605665377,0.19723474296822394,0.0,0.22190943631575977,0.17525909552790928,0.04740818401306978,1225.06917306832,22846.992480323162
6.8234117058529264,937.3185160401665,936.336946128951,0.19735774104839923,0.0,0.22194546302473273,0.1752220256963776,0.0474073611992276,1225.041672340229,22856.404469796038
6.833416708354177,937.4257053066952,936.4428137164886,0.19748122170883822,0.0,0.22198162838555685,0.17518481496046817,0.04740654327088809,1225.0140653108288,22865.810085398905
6.843421710855427,937.5330875477325,936.5488646104131,0.19760518805589436,0.0,0.22201793331440406,0.17514746239819756,0.04740573026112664,1224.9863513033865,22875.20933943663
