z,T,t,fs,fl,x,y,w,rhob,p
0.0,634.5527991979367,505.0,0.0,0.0,0.15983603148406053,0.23792750321337425,0.04776007084854197,1268.0,14330.0
0.010005002501250625,643.1380316937716,518.1962947991018,2.663071978732387e-05,0.0,0.15984429381533366,0.2379192408819159,0.04776007084824904,1267.9942413729923,14343.88081602954
0.02001000500250125,651.3980752885841,530.8730947655921,5.735180815312498e-05,0.0,0.15985382520627317,0.23790970949055124,0.047760070847576816,1267.987598244475,14358.041278608476
0.030015007503751877,659.3481778369072,543.0562979863889,9.235095319834006e-05,0.0,0.1598646838878325,0.23789885080808157,0.04776007084613749,1267.9800300285603,14372.471034185013
0.0400200100050025,667.0026491832431,554.77007150042,0.00013178828952840476,0.0,0.15987691954206895,0.23788661515201215,0.04776007084323919,1267.9715020973615,14387.16005066325
0.05002501250625312,674.3749364873312,566.0370044439184,0.00017579783290250507,0.0,0.1598905737470986,0.23787296094348717,0.04776007083771256,1267.9619854706684,14402.098610643257
0.060030015007503754,681.4776920570424,576.8782441916505,0.00022448917713755926,0.0,0.15990568050336207,0.2378578541808751,0.04776007082767423,1267.9514564488804,14417.27730424727
0.07003501750875438,688.3228345638731,587.313617753474,0.00027794933605518736,0.0,0.15992226680482607,0.2378412678683709,0.04776007081021776,1267.9398962145335,14432.687021654168
0.080040020010005,694.9216044008284,597.3617403376459,0.0003362446427155123,0.0,0.15994035322788996,0.23782318142684503,0.04776007078102616,1267.9272904213967,14448.318945440986
0.09004502251125562,701.2846138438313,607.0401127051094,0.0003994226420195978,0.0,0.15995995451816317,0.23780358010676933,0.047760070733903356,1267.9136287849592,14464.164542811166
0.10005002501250625,707.4218925642557,616.3652086499718,0.000467513930809569,0.0,0.15998108016088367,0.23778245441745238,0.047760070660226216,1267.8989046842262,14480.215557787831
0.11005502751375687,713.3429288506192,625.3525535432832,0.0005405339115097085,0.0,0.16000373492444572,0.23775979958311722,0.04776007054832176,1267.8831147821697,14496.464003507639
0.12006003001500751,719.0567075401914,634.0167959376512,0.000618484455542463,0.0,0.1600279193758812,0.23773561502698787,0.04776007038278269,1267.8662586656562,14512.90215437331
0.13006503251625812,724.5717446122544,642.3717723384101,0.0007013554517587741,0.0,0.1600536303606249,0.2377099038910614,0.04776007014373658,1267.8483385102102,14529.522538284138
0.14007003501750875,729.8961186895732,650.4305657518279,0.0007891262333572474,0.0,0.1600808614445529,0.23768267259358766,0.047760069806083945,1267.8293587710439,14546.317929043833
0.15007503751875936,735.0374998948057,658.2055589296928,0.0008817668871536706,0.0,0.16010960331951074,0.23765393042305297,0.04776006933872579,1267.8093258995114,14563.281338893632
0.16008004002001,740.0031763275002,665.708482888237,0.000979239447876035,0.0,0.16013984417317975,0.23762368916783144,0.0477600687038019,1267.7882480844405,14580.406011185938
0.17008504252126064,744.8000783959001,672.9504612050341,0.0010814989821862364,0.0,0.16017157002475912,0.2375919627800421,0.0477600678559613,1267.766135017321,14597.685413210702
0.18009004502251125,749.4348012112674,679.9420505352523,0.001188494568433804,0.0,0.16020476502834533,0.2375587670717414,0.04776006674168586,1267.7429976800713,14615.113229183726
0.19009504752376188,753.9136252259985,686.6932777295747,0.0013001701788456692,0.0,0.1602394117461061,0.2375241194413673,0.0477600652986866,1267.7188481539442,14632.68335340548
0.2001000500250125,758.2425351937193,693.2136737520344,0.001416465470251944,0.0,0.16027549139315453,0.2374880386285387,0.0477600634553867,1267.693699448255,14650.38988365717
0.21010505252626313,762.427237790932,699.5123050243479,0.0015373164936542873,0.0,0.16031298405733743,0.2374505444940072,0.04776006113051164,1267.667565346719,14668.227114709052
0.22011005502751374,766.4731780354732,705.5978024649758,0.0016626563281898366,0.0,0.16035186889567646,0.23741165782303505,0.047760058232802154,1267.640460270207,14686.189531918255
0.23011505752876438,770.3855543923038,711.4783880834033,0.0017924156437999616,0.0,0.160392124308797,0.23737140015086167,0.04776005466084959,1267.6123991549832,14704.271805084054
0.24012006003001501,774.169332784608,717.1618995303533,0.0019265232008660175,0.0,0.16043372809591666,0.23732979360769393,0.04776005030306174,1267.583397344644,14722.468782484577
0.25012506253126565,777.8292596112115,722.6558128025465,0.00206490629288039,0.0,0.16047665759227664,0.23728686078133696,0.047760045037761885,1267.553470494451,14740.775485088257
0.26013006503251623,781.3698738550548,727.9672632692218,0.0022074911377163993,0.0,0.16052088979074328,0.23724262459573903,0.04776003873341942,1267.522634486847,14759.187100937881
0.27013506753376687,784.7955183590848,733.1030651699906,0.002354203222625678,0.0,0.16056640144916468,0.23719710820386114,0.04776003124900853,1267.4909053570536,14777.698979704574
0.2801400700350175,788.1103503384176,738.0697297179711,0.0025049676076636974,0.0,0.16061316918493737,0.2371503348934143,0.047760022434487785,1267.4582992277183,14796.306627408776
0.29014507253626814,791.3183511589568,742.8734818764392,0.00265970919184979,0.0,0.16066116955810758,0.237102328004131,0.0477600121313905,1267.4248322516883,14815.005701332877
0.3001500750375187,794.4233354602202,747.520275953026,0.0028183529462906575,0.0,0.16071037914431327,0.2370531108552612,0.04776000017351654,1267.3905205619753,14833.79200510831
0.31015507753876936,797.4289598099681,752.0158103286841,0.002980824117184398,0.0,0.1607607745984637,0.23700270668238996,0.04775998638771919,1267.355380228293,14852.6614838457
0.32016008004002,800.3387307406196,756.3655410903616,0.003147048401910921,0.0,0.16081233271013323,0.23695113858258696,0.047759970594763515,1267.3194272194492,14871.610219475539
0.33016508254127064,803.1560122656863,760.5746947389616,0.0033169521013903702,0.0,0.16086503045164363,0.2368984294669047,0.04775995261024492,1267.2826773709035,14890.634426250863
0.3401700850425213,805.8840329296794,764.6482800689778,0.0034904622512796717,0.0,0.160918845019622,0.23684460201943106,0.047759932245553936,1267.2451463569291,14909.730446394402
0.35017508754377186,808.5258924264349,768.5910992849803,0.0036675067343325727,0.0,0.16097375387074184,0.23678967866217804,0.04775990930887265,1267.2068496668603,14928.894745886178
0.3601800900450225,811.0845678177553,772.4077584141406,0.003848014376010492,0.0,0.16102973475228252,0.2367336815251637,0.047759883606188346,1267.1678025849767,14948.123910387572
0.37018509254627313,813.5629193815174,776.1026770686118,0.004031915025215767,0.0,0.1610867657280756,0.23667663242110903,0.04775985494231072,1267.128020173601,14967.414641297903
0.38019009504752377,815.9636961076328,779.6800975936133,0.00421913962191113,0.0,0.16114482520037351,0.2366185528242062,0.04775982312187944,1267.087517259033,14986.763751947918
0.39019509754877435,818.289540840699,783.1440936056007,0.004409620253520122,0.0,0.16120389192822007,0.23655946385237342,0.04775978795035194,1267.046308419893,15006.168163954258
0.400200100050025,820.5429952080821,786.4985781459472,0.0046032902000936685,0.0,0.16126394504230585,0.23649938625300304,0.04775974923495891,1267.0044079778822,15025.624903611117
0.4102051025512756,822.7265042529887,789.7473113261783,0.0048000839703201,0.0,0.1613249640569444,0.2364383403915622,0.047759706785615794,1266.961829990494,15045.131098414753
0.42021010505252626,824.8424207868271,792.8939074922763,0.004999937329711958,0.0,0.1613869288795768,0.23637634624263354,0.04775966041578461,1266.918588245393,15064.683973725445
0.4302151075537769,826.8930095015428,795.9418419763749,0.005202787321672834,0.0,0.16144981981801626,0.23631342338317915,0.0477596099432789,1266.8746962563023,15084.280849539251
0.4402201100550275,828.8804508579786,798.8944574646067,0.0054085722822954894,0.0,0.16151361758569296,0.23624959098776568,0.04775955519100623,1266.8301672602086,15103.919137366156
0.4502251125562781,830.806844765016,801.7549700074594,0.005617231849651807,0.0,0.16157830330513087,0.23618486782551498,0.04775949598764432,1266.7850142157267,15123.596337211093
0.46023011505752875,832.6742140631122,804.5264746968813,0.0058287069682527275,0.0,0.16164385850986462,0.23611927225857113,0.04775943216824787,1266.739249802468,15143.310034654562
0.4702351175587794,834.4845078233529,807.2119510301678,0.006042939889308894,0.0,0.16171026514499073,0.2360528222418878,0.047759363574784504,1266.692886421277,15163.057898031251
0.48024012006003003,836.2396044510712,809.8142679459821,0.006259874167781048,0.0,0.1617775055666623,0.2359855353240297,0.04775929005660213,1266.6459361951277,15182.837675729534
0.4902451225612806,837.9413146620357,812.3361886411096,0.006479454655663725,0.0,0.16184556254034985,0.23591742864916032,0.047759211470822856,1266.5984109707892,15202.647193544552
0.5002501250625313,839.591384326056,814.7803751612764,0.006701627492049032,0.0,0.16191441923803826,0.23584851896004788,0.04775912768266328,1266.5503223211538,15222.484352096157
0.5102551275637819,841.1914971435216,817.1493927141636,0.006926340091257704,0.0,0.16198405923476658,0.23577882260168698,0.04775903856568974,1266.5016815479403,15242.347124360278
0.5202601300650325,842.7432771882811,819.4457137584828,0.0071535411289309165,0.0,0.16205446650447772,0.23570835552556915,0.0477589440020089,1266.4524996848088,15262.233553282811
0.5302651325662832,844.2482913257418,821.6717218844352,0.007383180526363666,0.0,0.16212562541526856,0.23563713329451452,0.0477588438823966,1266.402787500818,15282.141749472405
0.5402701350675337,845.7080515135914,823.8297154984054,0.007615209433346231,0.0,0.16219752072412585,0.2355651710879808,0.047758738106368874,1266.352555504174,15302.069888969403
0.5502751375687843,847.1240169920237,825.9219113238255,0.007849580209750302,0.0,0.1622701375712248,0.23549248370777526,0.04775862658219901,1266.3018139462217,15322.016211088505
0.560280140070035,848.4975963697834,827.950447729145,0.008086246406071574,0.0,0.16234346147386083,0.23541908558410274,0.047758509226884883,1266.2505728256363,15341.97901633273
0.5702851425712856,849.8301496007492,829.9173878758319,0.008325162743393257,0.0,0.16241747832016248,0.23534499078180435,0.04775838596607295,1266.198841892711,15361.956664390145
0.5802901450725363,851.1229898703323,831.824722717287,0.008566285092636695,0.0,0.16249217436254787,0.2352702130068272,0.04775825673394132,1266.1466306537832,15381.947572194933
0.5902951475737869,852.3773854261274,833.6743739024926,0.008809570452455909,0.0,0.16256753621072215,0.23519476561312586,0.04775812147303992,1266.093948375923,15401.950212013588
0.6003001500750375,853.5945613058977,835.4681965127805,0.00905497692718078,0.0,0.16264355082466508,0.2351186616095555,0.0477579801341018,1266.0408040916027,15421.963109617633
0.6103051525762881,854.7757009847127,837.2079816662535,0.009302463704527072,0.0,0.1627202055075218,0.23504191366684438,0.04775783267582698,1265.9872066033968,15441.984842520025
0.6203101550775387,855.9219479483816,838.8954590015569,0.009551991033100607,0.0,0.16279748789840884,0.23496453412463597,0.04775767906464213,1265.9331644887131,15462.014038269686
0.6303151575787894,857.0344071971437,840.5322990477297,0.009803520199783377,0.0,0.16287538596516535,0.23488653499857284,0.0477575192744401,1265.8786861045432,15482.049372802243
0.64032016008004,858.1141466833195,842.1201154864241,0.010057013507078565,0.0,0.16295388799707758,0.23480792798739702,0.047757353286302595,1265.8237795922053,15502.089568845064
0.6503251625812906,859.1621986864026,843.660467312369,0.010312434250483008,0.0,0.16303298259759955,0.23472872448004542,0.0477571810882097,1265.7684528820805,15522.13339437479
0.6603301650825413,860.1795611236928,845.1548608898548,0.010569746684013602,0.0,0.1631126586733909,0.23464893556642252,0.04775700267473965,1265.7127137009013,15542.179661130318
0.6703351675837919,861.1671970267262,846.6047493915236,0.01082890158526926,0.0,0.1631929009555105,0.23456857651601554,0.04775681804676756,1265.656572692998,15562.227223159065
0.6803401700850426,862.1261756430816,848.0117335249749,0.011090969617627115,0.0,0.16327404163228298,0.23448731514470927,0.047756627210960155,1265.599798341779,15582.27497658427
0.6903451725862931,863.0576813445805,849.3775732303495,0.011358259201964403,0.0,0.1633567969183457,0.2344044352444522,0.04775643017774228,1265.5418914800346,15602.321868640887
0.7003501750875437,863.9621820391718,850.703006994523,0.011627517300936103,0.0,0.16344015755351893,0.23432094608587412,0.04775622696364836,1265.4835555536351,15622.36687936698
0.7103551775887944,864.8405078782993,851.9892863840737,0.011898599517218366,0.0,0.1635240787594952,0.234236892461658,0.047756017591419564,1265.4248217995396,15642.40901839578
0.720360180090045,865.693475570992,853.2376410288922,0.012171476189930456,0.0,0.16360855135987779,0.23415228356555823,0.04775580208851212,1265.365696646687,15662.447331195544
0.7303651825912957,866.5218752108763,854.4492600206813,0.012446118205997383,0.0,0.16369356635211288,0.23406712842027935,0.04775558048679842,1265.3061864079837,15682.480897843283
0.7403701850925463,867.326471247811,855.6252934169081,0.012722497247547036,0.0,0.16377911498398046,0.23398143580079522,0.047755352822266825,1265.246297226641,15702.508831881561
0.7503751875937968,868.1080033872084,856.7668536351921,0.01300058577295735,0.0,0.1638651887474542,0.2338952142403041,0.04775511913472848,1265.1860350801126,15722.530279214989
0.7603801900950475,868.8671874448645,857.8750167774817,0.01328035699764873,0.0,0.16395177937249045,0.23380847203625943,0.04775487946753299,1265.1254057840915,15742.544417054265
0.7703851925962981,869.6047161819081,858.9508239216348,0.013561784874791113,0.0,0.16403887882079637,0.23372121725642622,0.04775463386729051,1265.0644149965306,15762.550452876661
0.7803901950975487,870.321260109992,859.9952823655149,0.013844844076277611,0.0,0.1641264792796889,0.2336334577448518,0.04775438238360276,1265.0030682216075,15782.547623416594
0.7903951975987994,871.0174682578904,861.0093668104015,0.014129509974311238,0.0,0.16421457315615345,0.23354520112764404,0.04775412506880484,1264.9413708135664,15802.535193698857
0.80040020010005,871.6939689083521,861.9940204973302,0.014415758623374065,0.0,0.1643031530710302,0.23345645481862787,0.047753861977717034,1264.87932798048,15822.51245610369
0.8104052026013007,872.3513703066885,862.9501562987703,0.014703566742576096,0.0,0.16439221185332734,0.23336722602488183,0.047753593167406835,1264.816944787935,15842.478729462468
0.8204102051025512,872.9902613423634,863.8786577676956,0.014992911698384674,0.0,0.16448174253466133,0.2332775217521535,0.04775331869696118,1264.754226162642,15862.433358182929
0.8304152076038018,873.611212204778,864.7803801460008,0.015283771487734122,0.0,0.16457173834382474,0.23318734881015438,0.047753038627269255,1264.691176895971,15882.375711403087
0.8404202101050525,874.2147750142921,865.6561513339574,0.01557612472151752,0.0,0.16466219270148147,0.23309671381773392,0.04775275302081554,1264.6278016474032,15902.305182172839
0.8504252126063031,874.801484424732,866.506772815167,0.015869950608625574,0.0,0.16475309921504158,0.2330056232078804,0.04775246194148368,1264.5641049478784,15922.221186668943
0.8604302151075538,875.3718582065982,867.3330205510618,0.016165228940253334,0.0,0.1648444516736278,0.23291408323263682,0.047752165454369916,1264.5000912030846,15942.123163431468
0.8704352176088044,875.9263978181206,868.1356458558233,0.01646194007424531,0.0,0.164936244043062,0.23282209996800204,0.04775186362560623,1264.435764696746,15962.010572612768
0.880440220110055,876.4655889484524,868.9153762280695,0.016760064920050353,0.0,0.1650284704610509,0.23272967931864036,0.04775155652219382,1264.3711295937856,15981.882895260102
0.8904452226113057,876.9899020403827,869.6729161505672,0.017059584924061403,0.0,0.165121125232499,0.23263682702246885,0.04775124421184635,1264.3061899434085,16001.739632622575
0.9004502251125562,877.4997927940714,870.4089478603204,0.017360482055311748,0.0,0.16521420282494084,0.23254354865513233,0.04775092676284244,1264.2409496821147,16021.580305480707
0.9104552276138069,877.9957026525949,871.1241320902972,0.01766273879152249,0.0,0.16530769786409044,0.23244984963436616,0.0477506042438873,1264.1754126366402,16041.404453497851
0.9204602301150575,878.4780592700507,871.8191087839975,0.01796633810549556,0.0,0.16540160512950475,0.23235573522425054,0.04775027672398301,1264.1095825268274,16061.211634592803
0.9304652326163081,878.9472769629339,872.494497784001,0.018271263451846338,0.0,0.16549591955036144,0.23226121053935667,0.04774994427230735,1264.043462968428,16081.001424332868
0.9404702351175588,879.4037571435578,873.150899492706,0.01857749875413989,0.0,0.16559063620136757,0.23216628054876587,0.0477496069581007,1263.9770574758234,16100.773415349247
0.9504752376188094,879.8478887356488,873.7888955055219,0.018885028392446733,0.0,0.1656857502988064,0.23207095007995665,0.0477492648505606,1263.9103694646556,16120.527216774759
0.9604802401200601,880.2800485853307,874.4090492364625,0.01919383719084661,0.0,0.16578125719657405,0.23197522382270572,0.047748918018743806,1263.8434022544777,16140.262453686628
0.9704852426213106,880.7006018535167,875.0119065151158,0.019503910405403814,0.0,0.1658771523823692,0.23187910633284117,0.04774856653147573,1263.776159071304,16159.978766573015
0.9804902451225612,881.1099023931348,875.5979961602171,0.019815233712506656,0.0,0.1659734314740017,0.23178260203588086,0.0477482104572666,1263.7086430500842,16179.675810818913
0.9904952476238119,881.5082931132586,876.1678305329766,0.020127793197508508,0.0,0.1660700902158006,0.23168571523057532,0.047747849864234186,1263.6408572371188,16199.353256208758
1.0005002501250626,881.8961063306498,876.7219060709729,0.020441575343663924,0.0,0.16616712447511903,0.23158845009235823,0.04774748482003265,1263.5728045924113,16219.010786445298
1.0105052526263132,882.2736641092025,877.2607038033805,0.020756567021353253,0.0,0.16626453023893395,0.23149081067670493,0.047747115391787325,1263.5044879919633,16238.648098684094
1.0205102551275638,882.6412785877516,877.784689848262,0.02107275547758934,0.0,0.1663623036105383,0.23139280092240294,0.04774674164603497,1263.4359102300104,16258.264903083209
1.0305152576288144,882.9992522961722,878.2943158918515,0.02139012832581976,0.0,0.16646044080632924,0.23129442465472905,0.047746363648669354,1263.3670740211976,16277.86092236824
1.040520260130065,883.3478784573794,878.7900196462697,0.02170867353612763,0.0,0.16655893815272468,0.2311956855885012,0.047745981464891465,1263.29798200267,16297.435891415871
1.0505252626313157,883.6874412855301,879.2722253011689,0.02202837942544468,0.0,0.16665779208308754,0.23109658733112629,0.04774559515916484,1263.2286367361671,16316.98955684255
1.0605302651325663,884.0182162739673,879.7413439596248,0.022349234648028907,0.0,0.16675699913473668,0.23099713338556355,0.04774520479517553,1263.1590407100566,16336.521676606912
1.070535267633817,884.3404704711037,880.1977740556008,0.02267122818628678,0.0,0.16685655594606794,0.23089732715318095,0.047744810435795974,1263.0891963413017,16356.032019628186
1.0805402701350675,884.6544627470475,880.6419017572122,0.02299434934184053,0.0,0.16695645925375477,0.23079717193653407,0.04774441214305286,1263.019105977374,16375.520365417122
1.090545272636318,884.9604440513274,881.0741013563562,0.023318587726833647,0.0,0.16705670589002605,0.2306966709420704,0.04774400997809865,1262.9487718981181,16394.986503718897
1.1005502751375686,885.2586576620453,881.4947356452138,0.023643933255468725,0.0,0.16715729278001884,0.2305958272827604,0.04774360400118658,1262.878196317568,16414.43023416767
1.1105552776388194,885.5493394267705,881.9041562801136,0.023970376135771916,0.0,0.1672582169392049,0.23049464398065775,0.04774319427164891,1262.8073813857156,16433.85136595235
1.12056028014007,885.8327179953857,882.3027041330959,0.024297906861581477,0.0,0.16735947547088859,0.2303931239693893,0.04774278084787818,1262.736329190233,16453.249717493396
1.1305652826413206,886.1090150430078,882.6907096283802,0.0246265162048422,0.0,0.16746106556380252,0.23029127009654907,0.047742363787311,1262.66504175813,16472.62511613301
1.1405702851425712,886.3784454878613,883.0684930710586,0.024956195208017118,0.0,0.16756298448974177,0.2301890851260559,0.0477419431464147,1262.593521057387,16491.977397832434
1.1505752876438218,886.6412177048358,883.436364969123,0.025286935176589094,0.0,0.16766522960122882,0.23008657174048147,0.047741518980677,1262.5217689985723,16511.306406875574
1.1605802901450726,886.8975337294471,883.7946263409299,0.02561872767186954,0.0,0.1677677983292754,0.22998373254328372,0.04774109134459757,1262.4497874363904,16530.611995585652
1.1705852926463232,887.1475894550053,884.1435690123174,0.02595156450400734,0.0,0.16787068818120832,0.22988057006097654,0.04774066029168169,1262.3775781711918,16549.894024051264
1.1805902951475737,887.3915748233802,884.4834759039719,0.02628543772518672,0.0,0.1679738967385556,0.22977708674524117,0.04774022587443598,1262.305142950441,16569.152359861335
1.1905952976488243,887.6296740095914,884.8146213093947,0.02662033962300901,0.0,0.16807742165499134,0.2296732849749795,0.047739788144365795,1262.2324834701462,16588.386877848767
1.200600300150075,887.8620656004368,885.1372711638003,0.026956262714053533,0.0,0.16818126065433767,0.22956916705831182,0.04773934715197451,1262.1596013762526,16607.597459842404
1.2106053026513257,888.0889227673634,885.4516833042618,0.027293199737613072,0.0,0.16828541152862223,0.22946473523451985,0.04773890294676425,1262.0864982659934,16626.783994427064
1.2206103051525763,888.3104134327565,885.7581077198797,0.027631143649641688,0.0,0.16838987213620252,0.22935999167592325,0.04773845557723792,1262.013175689206,16645.946376712698
1.2306153076538269,888.5267004304746,886.0567867932236,0.02797008761688526,0.0,0.16849464039994816,0.22925493848970005,0.047738005090902404,1261.9396351495964,16665.08450811153
1.2406203101550775,888.737941665075,886.3479555396991,0.02831002501101193,0.0,0.1685997143054248,0.22914957771970537,0.04773755153427379,1261.8658781060158,16684.198296117767
1.250625312656328,888.9442902639922,886.6318418362625,0.028650949402983104,0.0,0.16870509189915334,0.2290439113482165,0.04773709495288335,1261.7919059736796,16703.287654096923
1.2606303151575788,889.1458947244452,886.9086666421566,0.02899285455759509,0.0,0.16881077128692276,0.22893794129762401,0.047736635391284435,1261.717720125351,16722.35250108256
1.2706353176588294,889.3428990556782,887.1786442125715,0.02933573442816904,0.0,0.16891675063215023,0.22883166943207697,0.04773617289306036,1261.6433218924944,16741.392761579653
1.28064032016008,889.5354429166912,887.4419823054744,0.029679583151385486,0.0,0.16902302815428613,0.22872509755908313,0.04773570750083302,1261.5687125663965,16760.40836537435
1.2906453226613306,889.7236617496126,887.6988823818397,0.03002439504225928,0.0,0.16912960212726394,0.22861822743106516,0.04773523925627239,1261.4938933992587,16779.399247349993
1.3006503251625812,889.9076869088588,887.9495397995042,0.030370164589251396,0.0,0.1692364708779928,0.22851106074687444,0.047734768200106616,1261.4188656052595,16798.365347309053
1.310655327663832,890.0876457859036,888.1941440003873,0.030716886449527615,0.0,0.1693436327848963,0.22840359915325903,0.04773429437213275,1261.343630361585,16817.30660980138
1.3206603301650826,890.2636619288437,888.4328786898659,0.031064555444401315,0.0,0.16945108627650854,0.22829584424627458,0.04773381781122764,1261.2681888094212,16836.222983959437
1.3306653326663331,890.4358551611759,888.6659220149036,0.03141316655477369,0.0,0.16955882983007017,0.22818779757269567,0.04773333855536003,1261.192542054947,16855.11442333545
1.3406703351675837,890.6043416962519,888.8934467356576,0.0317627149167232,0.0,0.16966686197017178,0.22807946063138074,0.047732856641603025,1261.116691170292,16873.98088574462
1.3506753376688343,890.7692342473678,889.1156203905081,0.03211319581724877,0.0,0.16977518126744418,0.22797083487458947,0.04773237210614672,1261.0406371944682,16892.822333114353
1.360680340170085,890.9306421344126,889.3326054558923,0.0324646046901292,0.0,0.16988378633728568,0.22786192170926367,0.047731884984311135,1260.9643811342692,16911.638731338477
1.3706853426713357,891.0886713871893,889.5445595011165,0.03281693711189546,0.0,0.1699926758386244,0.22775272249827355,0.047731395310559456,1260.8879239651499,16930.43005013616
1.3806903451725863,891.2434248455174,889.7516353383152,0.03317018879791297,0.0,0.17010184847271495,0.2276432385616295,0.047730903118511546,1260.8112666320803,16949.19626291553
1.3906953476738368,891.3950022562227,889.9539811677115,0.033524355598570706,0.0,0.17021130298196835,0.22753347117766054,0.0477304084409576,1260.7344100503774,16967.937346641676
1.4007003501750874,891.5435003670465,890.151740718241,0.03387943349557729,0.0,0.17032103814881555,0.22742342158416015,0.047729911309871975,1260.657355106514,16986.65328170909
1.4107053526763382,891.6890130166162,890.3450533822511,0.034235418598403664,0.0,0.17043105279461565,0.22731309097948588,0.047729411756426886,1260.5801026588947,17005.34405181944
1.4207103551775888,891.8316312230008,890.5340543480517,0.034592307140762654,0.0,0.1705413457785769,0.22720248052364816,0.047728909811006526,1260.5026535386269,17024.009643861773
1.4307153576788394,891.9714432702696,890.7188747294433,0.0349500954771516,0.0,0.1706519159966966,0.22709159133937887,0.0477284055032215,1260.4250085502729,17042.6500477958
1.44072036018009,892.1085347913797,890.8996416897357,0.035308780079533295,0.0,0.17076276238074423,0.22698042451315745,0.04772789886192305,1260.347168472579,17061.265256540217
1.4507253626813406,892.2429888484735,891.0764785618669,0.03566835753410882,0.0,0.17087388389727298,0.22686898109620826,0.04772738991521724,1260.2691340591778,17079.85526586465
1.4607303651825914,892.374886010701,891.2495049648008,0.03602882453817881,0.0,0.17098527954665876,0.22675726210547087,0.047726878690479126,1260.1909060392782,17098.4200742852
1.470735367683842,892.5043044296485,891.4188369163206,0.0363901778970903,0.0,0.17109694836216546,0.22664526852454317,0.04772636521436692,1260.1124851183301,17116.959682963417
1.4807403701850925,892.6313199124461,891.5845869423364,0.03675241452126712,0.0,0.17120888940903645,0.22653300130459939,0.047725849512836184,1260.0338719786773,17135.474095608548
1.490745372686343,892.7560059926266,891.7468641828094,0.037115531423321475,0.0,0.1713211017836108,0.22642046136528218,0.047725331611153735,1259.955067280187,17153.963318383103
1.5007503751875937,892.8784339982681,891.9057744936016,0.037479525715269246,0.0,0.17143358461247196,0.2263076495955633,0.047724811533911594,1259.876071660861,17172.42735981199
1.5107553776888443,892.9986731181704,892.0614205453744,0.03784439460581592,0.0,0.17154633705161784,0.2261945668545816,0.047724289305040586,1259.796885737431,17190.866230694548
1.520760380190095,893.1167904674177,892.2139019215381,0.038210135397652834,0.0,0.17165935828563447,0.22608121397247885,0.04772376494782448,1259.7175101059488,17209.279944018028
1.5307653826913457,893.232851150058,892.3633152118919,0.038576745484866545,0.0,0.17177264752690471,0.22596759175119902,0.04772323848491364,1259.6379453423556,17227.668514874764
1.5407703851925962,893.346918319751,892.5097541032086,0.03894422235042468,0.0,0.17188620401484003,0.22585370096526564,0.047722709938338506,1259.558192003033,17246.031960382334
1.5507753876938468,893.4590532385628,892.6533094670419,0.03931256356373031,0.0,0.1720000270151339,0.22573954236253643,0.047722179329522954,1259.478250625338,17264.370299606264
1.5607803901950974,893.5693153339672,892.794069444841,0.0396817667782431,0.0,0.17211411581903535,0.22562511666493826,0.04772164667929749,1259.3981217281257,17282.68355348533
1.5707853926963482,893.677762254111,892.9321195304605,0.04005182972916583,0.0,0.17222846974264314,0.2255104245691814,0.047721112007912306,1259.3178058122571,17300.971744759332
1.5807903951975988,893.7844499213943,893.0675426501433,0.04042275023119378,0.0,0.1723430881262186,0.22539546674745434,0.04772057533505008,1259.2373033610909,17319.234897899198
1.5907953976988494,893.8894325842296,893.2004192397759,0.04079452617633485,0.0,0.17245797033352092,0.22528024384809694,0.04772003667983866,1259.156614840965,17337.473039039716
1.6008004002001,893.99276286678,893.3308273191183,0.041167155531810044,0.0,0.1725731157511666,0.22516475649624854,0.04771949606086333,1259.0757407016529,17355.686195914797
1.6108054027013505,894.0944918185068,893.4588425657322,0.04154063633795012,0.0,0.17268852378798805,0.2250490052944973,0.04771895349617939,1258.9946813768304,17373.87439779364
1.6208104052026013,894.1946689617739,893.5845383860033,0.04191496670616987,0.0,0.1728041938744162,0.22493299082350543,0.04771840900332432,1258.9134372845153,17392.037675419462
1.630815407703852,894.2933423377599,893.7079859836301,0.042290144817009316,0.0,0.17292012546188318,0.224816713642614,0.047717862599329766,1258.8320088275025,17410.176060950544
1.6408204102051025,894.3905585509779,893.8292544260271,0.04266616891822852,0.0,0.17303631802224184,0.2247001742904306,0.047717314300733255,1258.750396393778,17428.28958790316
1.650825412706353,894.4863628124457,893.9484107087069,0.043043037322954364,0.0,0.17315277104720112,0.2245833732854019,0.047716764123589724,1258.6686003569291,17446.378291096495
1.6608304152076037,894.5807989815504,894.0655198177055,0.04342074840787815,0.0,0.17326948404777676,0.2244663111263692,0.04771621208348292,1258.5866210765387,17464.442206599346
1.6708354177088545,894.6739096066443,894.180644790111,0.04379930061150234,0.0,0.17338645655375762,0.22434898829311012,0.047715658195536484,1258.5044588985713,17482.481371678634
1.680840420210105,894.7657359643658,894.2938467726816,0.044178692432437626,0.0,0.17350368811318673,0.2242314052468638,0.0477151024744249,1258.4221141557466,17500.495824749614
1.6908454227113556,894.8563180973194,894.4051850780143,0.04455892242776801,0.0,0.17362117829186366,0.2241135624308354,0.04771454493438402,1258.3395871678995,17518.485605328267
1.7008504252126062,894.945694851363,894.5147172401165,0.04493998921142533,0.0,0.17373892667284968,0.22399546027069778,0.04771398558922173,1258.2568782423375,17536.450753984485
1.7108554277138568,895.0339039118925,894.6224990684786,0.045321891452602195,0.0,0.1738569328559846,0.223877099175081,0.04771342445232839,1258.173987674189,17554.391312296804
1.7208604302151076,895.1209818386649,894.7285846999603,0.04570462787422565,0.0,0.17397519645742227,0.22375847953604353,0.04771286153668693,1258.0909157467383,17572.307322808974
1.7308654327163582,895.2069640995651,894.8330266490997,0.04608819725147282,0.0,0.1740937171091789,0.22363960172953,0.04771229685488286,1258.0076627317546,17590.198828987985
1.7408704352176088,895.2918851033545,894.9358758568981,0.046472598410327276,0.0,0.17421249445869394,0.2235204661158166,0.04771173041911388,1257.924228889807,17608.065875183554
1.7508754377188593,895.3757782314323,895.0371817381302,0.04685783022617467,0.0,0.17433152816840258,0.22340107303994444,0.047711162241199506,1257.8406144705737,17625.908506588872
1.76088044022011,895.4586758686411,895.1369922272229,0.04724389162243687,0.0,0.1744508179153207,0.22328142283214075,0.04771059233259031,1257.7568197131438,17643.726769202825
1.7708854427213607,895.5406094331381,895.2353538227395,0.04763078156924367,0.0,0.1745703633906404,0.2231615158082288,0.04771002070437712,1257.6728448463084,17661.52070979333
1.7808904452226113,895.6216094050942,895.3323116301117,0.04801849908215416,0.0,0.1746901642993414,0.2230413522700222,0.047709447367299755,1257.5886900888422,17679.29037586229
1.7908954477238619,895.701705354721,895.4279094033682,0.04840704322090378,0.0,0.17481022035981036,0.22292093250571138,0.04770887233175585,1257.50435564978,17697.03581561143
1.8009004502251125,895.7809259699409,895.5221895863244,0.048796413088161905,0.0,0.17493053130346262,0.22280025679024704,0.04770829560780946,1257.4198417286884,17714.757077909006
1.810905452726363,895.8592990828585,895.6151933519816,0.049186607828341264,0.0,0.17505109687438053,0.22267932538570698,0.047707717205199465,1257.3351485159294,17732.45421225793
1.8209104552276139,895.9368516954019,895.7069606406901,0.04957762662644135,0.0,0.17517191682896205,0.22255813854165318,0.047707137133347774,1257.2502761929147,17750.127268765013
1.8309154577288644,896.013610004197,895.797530197163,0.049969468706923495,0.0,0.17529299093557837,0.22243669649547868,0.04770655540136725,1257.1652249323529,17767.776298111225
1.840920460230115,896.0895994246929,895.8869396063726,0.05036213333261665,0.0,0.17541431897424198,0.2223149994727449,0.047705972018069594,1257.079994898491,17785.401351522996
1.8509254627313656,896.1648446145649,895.975225328367,0.05075561980365302,0.0,0.17553590073628272,0.22219304768751,0.0477053869919729,1256.994586247347,17803.002480744515
1.8609304652326162,896.2393694964146,896.0624227320366,0.05114992745643264,0.0,0.17565773602403342,0.22207084134264835,0.0477048003313092,1256.9089991269411,17820.57973801095
1.870935467733867,896.3131972796774,896.148566127698,0.05154505566262208,0.0,0.17577982465052575,0.2219483806301591,0.04770421204403159,1256.8232336775131,17838.13317602267
1.8809404702351176,896.3863504817485,896.2336887985103,0.051941003828186394,0.0,0.17590216643919576,0.22182566573146478,0.047703622137821346,1256.7372900317375,17855.662847920445
1.8909454727363681,896.4588509490293,896.3178230317678,0.052337771392420296,0.0,0.17602476122359012,0.22170269681771024,0.04770303062009495,1256.651168314936,17873.168807261092
1.9009504752376187,896.5307198771005,896.4010001488925,0.052735357827017514,0.0,0.1761476088470829,0.22157947405004927,0.04770243749801088,1256.5648686452823,17890.65110799419
1.9109554777388693,896.6019778302195,896.4832505344104,0.053133762635169335,0.0,0.17627070916260218,0.22145599757992315,0.0477018427784763,1256.4783911340019,17908.10980443967
1.9209604802401201,896.6726447602284,896.5646036640569,0.05353298535068774,0.0,0.17639406203236344,0.2213322675493304,0.04770124646815341,1256.3917358855635,17925.54495126608
1.9309654827413707,896.742740024901,896.6450881320368,0.053933025537152436,0.0,0.17651766732761073,0.2212082840910903,0.04770064857346585,1256.3049029978686,17942.95660346972
1.9409704852426213,896.8122824057397,896.7247316774639,0.05433388278708119,0.0,0.1766415249283647,0.22108404732909842,0.04770004910060479,1256.2178925624335,17960.344816354445
1.9509754877438719,896.8812901252418,896.8035612100074,0.05473555672112261,0.0,0.17676563472317738,0.22095955737857573,0.047699448055534936,1256.1307046645663,17977.709645512194
1.9609804902451224,896.9497808636166,896.8816028347181,0.0551380469872727,0.0,0.17688999660889437,0.22083481434631,0.04769884544400039,1256.0433393835415,17995.051146804202
1.970985492746373,897.0177717748176,896.9588818758302,0.055541353260122175,0.0,0.17701461049042636,0.22070981833088807,0.047698241271530245,1255.9557967927637,18012.369376343002
1.9809904952476238,897.0852795024683,897.0354229004024,0.055945475240105444,0.0,0.17713947628052096,0.22058456942292723,0.04769763554344422,1255.868076959935,18029.664390474794
1.9909954977488744,897.1523201952913,897.1112497412112,0.056350412652771076,0.0,0.1772645938995415,0.22045906770530027,0.04769702826485815,1255.780179947214,18046.936245762543
2.001000500250125,897.2189095219455,897.1863855187645,0.05675616524807889,0.0,0.17738996327525325,0.22033331325335215,0.047696419440689274,1255.6921058113724,18064.184998969704
2.0110055027513756,897.2850626854228,897.2608526626517,0.05716273279971592,0.0,0.17751558434261627,0.22020730613511103,0.04769580907566137,1255.6038546039445,18081.410707044528
2.0210105052526264,897.3507944370168,897.334672932253,0.05757011510443125,0.0,0.17764145704358308,0.22008104641149312,0.04769519717430982,1255.5154263713744,18098.61342710496
2.0310155077538767,897.4161190898767,897.4078674368263,0.057978311981388565,0.0,0.17776758132690237,0.2199545341365025,0.047694583740986486,1255.4268211551582,18115.793216424016
2.0410205102551275,897.4810505321584,897.4804566549896,0.05838732327153665,0.0,0.17789395714792786,0.21982776935742526,0.0476939687798645,1255.3380389919835,18132.95013241576
2.0510255127563783,897.545602239782,897.5524604536106,0.0587971488369969,0.0,0.17802058446843239,0.21970075211501808,0.0476933522949429,1255.2490799138634,18150.084232621724
2.0610305152576287,897.6097872886775,897.6238981059304,0.059207788560474546,0.0,0.17814746325642927,0.2195734824436899,0.04769273429005113,1255.1599439482677,18167.195574697907
2.0710355177588795,897.6736183668133,897.6947883093552,0.059619242344678365,0.0,0.1782745934859962,0.21944596037168093,0.047692114768853384,1255.0706311182491,18184.28421640214
2.08104052026013,897.7371077860203,897.7651492029355,0.060031510111748294,0.0,0.17840197513710143,0.21931818592123895,0.047691493734853166,1254.9811414425706,18201.350215581937
2.0910455227613807,897.8002674933178,897.8349983840984,0.060444591802706324,0.0,0.17852960819543728,0.2191901591087887,0.04769087119139724,1254.8914749358264,18218.39363016281
2.1010505252626315,897.8631090819007,897.9043529248652,0.060858487376922364,0.0,0.17865749265225797,0.21906187994509643,0.0476902471416799,1254.8016316085584,18235.414518137
2.111055527763882,897.9256438018049,897.9732293875809,0.06127319681159481,0.0,0.17878562850422197,0.2189333484354303,0.04768962158874688,1254.7116114673734,18252.41293755267
2.1210605302651326,897.9878825702598,898.0416438401697,0.061688720101245036,0.0,0.17891401575323862,0.21880456457971598,0.04768899453549923,1254.6214145150514,18269.388946503477
2.131065532766383,898.0498359817409,898.1096118709295,0.06210505725722538,0.0,0.17904265440631895,0.21867552837268836,0.047688365984697084,1254.5310407506554,18286.342603118494
2.141070535267634,898.1115143177292,898.1771486028804,0.06252220830724063,0.0,0.17917154447543032,0.21854623980403923,0.04768773593896338,1254.440490169639,18303.2739655526
2.151075537768884,898.1729275561272,898.2442687075866,0.06294017329488542,0.0,0.17930068597735607,0.21841669885855977,0.04768710440078735,1254.349762763944,18320.183091977146
2.161080540270135,898.2340853803862,898.3109864185353,0.0633589522791952,0.0,0.17943007893355942,0.21828690551627894,0.04768647137252802,1254.258858522103,18337.07004057101
2.1710855427713858,898.2949971885909,898.3773155444338,0.0637785453341976,0.0,0.17955972337004714,0.21815685975260202,0.04768583685641765,1254.1677774293369,18353.934869511988
2.181090545272636,898.3556721021675,898.4432694819313,0.06419895254848204,0.0,0.17968961931723904,0.21802656153844294,0.04768520085456501,1254.0765194676508,18370.77763696851
2.191095547773887,898.4161189743248,898.5088612279195,0.06462017402478205,0.0,0.17981976680984138,0.21789601084035345,0.04768456336895866,1253.9850846159234,18387.598401091695
2.2011005502751373,898.4763463982559,898.5741033914596,0.06504220987956864,0.0,0.1799501658867232,0.2177652076206482,0.04768392440147009,1253.89347285,18404.397220007722
2.211105552776388,898.5363627151139,898.6390082053471,0.06546506024265464,0.0,0.18008081659079658,0.21763415183752668,0.04768328395385665,1253.801684142778,18421.174151810486
2.221110555277639,898.5961760217664,898.7035875373208,0.06588872525680953,0.0,0.1802117189688996,0.21750284344519225,0.04768264202776467,1253.7097184642914,18437.92925455454
2.2311155577788893,898.6557941783384,898.7678529009307,0.06631320507738428,0.0,0.18034287307168245,0.21737128239396758,0.04768199862473224,1253.6175757817955,18454.662586248316
2.24112056028014,898.7152248155326,898.8318154660399,0.06673849987194776,0.0,0.1804742789534972,0.2172394686304067,0.04768135374619209,1253.5252560598444,18471.374204847678
2.2511255627813904,898.7744753416839,898.8954860688959,0.06716460981993588,0.0,0.18060593667229158,0.21710740209740342,0.04768070739347422,1253.4327592603706,18488.064168249613
2.2611305652826412,898.8335529498037,898.9588752221522,0.06759153511230116,0.0,0.1807378462895021,0.216975082734299,0.04768005956780866,1253.3400853427604,18504.732534286264
2.271135567783892,898.8924646244028,899.0219931245152,0.06801927595117346,0.0,0.18087000786995155,0.21684251047698713,0.04767941027032805,1253.247234263931,18521.379360719246
2.2811405702851424,898.9512171481008,899.084849670029,0.0684478325495319,0.0,0.1810024214817494,0.21670968525801476,0.04767875950207017,1253.1542059784001,18538.004705234147
2.291145572786393,899.0098171080712,899.1474544570652,0.06887720513088538,0.0,0.18113508719619473,0.21657660700668085,0.04767810726398043,1253.061000438359,18554.608625435296
2.3011505752876436,899.068270902335,899.2098167970288,0.06930739392896132,0.0,0.18126800508768184,0.21644327564913202,0.04767745355691423,1252.9676175937393,18571.191178840705
2.3111555777888944,899.1265847459088,899.2719457227879,0.06973839918740249,0.0,0.18140117523360824,0.2163096911084564,0.04767679838163928,1252.87405739228,18587.752422877315
2.321160580290145,899.1847646768146,899.3338499968306,0.07017022115947166,0.0,0.1815345977142852,0.21617585330477437,0.047676141738837934,1252.7803197795931,18604.29241487639
2.3311655827913955,899.2428165619598,899.395538119151,0.07060286010776384,0.0,0.1816682726128501,0.21604176215532733,0.04767548362910934,1252.6864046992284,18620.811212069115
2.3411705852926463,899.3007461028385,899.4570183347847,0.07103631630392944,0.0,0.18180220001518274,0.21590741757456325,0.04767482405297157,1252.5923120927307,18637.308871582412
2.3511755877938967,899.3585588412091,899.5182986412213,0.07147059002839937,0.0,0.1819363800098217,0.21577281947422125,0.04767416301086376,1252.4980418997047,18653.785450434953
2.3611805902951475,899.4162601647072,899.5793867956244,0.07190568157011527,0.0,0.1820708126878827,0.21563796776341468,0.047673500503148135,1252.4035940578715,18670.241005533397
2.3711855927963983,899.4738553123117,899.6402903217178,0.07234159122626949,0.0,0.18220549814297943,0.21550286234871155,0.04767283653011203,1252.3089685031273,18686.67559366882
2.3811905952976486,899.5313493797278,899.7010165164324,0.07277831930205131,0.0,0.18234043647114667,0.21536750313421255,0.04767217109196983,1252.2141651695993,18703.089271513287
2.3911955977988995,899.5887473247022,899.7615724563138,0.07321586611039951,0.0,0.18247562777076534,0.21523189002162743,0.04767150418886485,1252.1191839896992,18719.482095616648
2.40120060030015,899.64605397228,899.8219650036979,0.07365423197176064,0.0,0.18261107214248895,0.21509602291034954,0.047670835820871164,1252.0240248941777,18735.854122403456
2.4112056028014006,899.7032740200152,899.8822008126562,0.0740934172138532,0.0,0.18274676968917195,0.21495990169752843,0.04767016598799546,1251.9286878121761,18752.20540817012
2.4212106053026514,899.7604120431475,899.942286334712,0.07453342217143699,0.0,0.18288272051580007,0.21482352627814116,0.047669494690178706,1251.8331726712765,18768.536009082178
2.431215607803902,899.8174724997301,900.0022278242794,0.07497424718608971,0.0,0.18301892472942205,0.214686896545061,0.047668821927297926,1251.7374793975525,18784.84598117173
2.4412206103051526,899.8744597357636,900.0620313438936,0.07541589260598769,0.0,0.18315538243908355,0.21455001238912502,0.04766814769916782,1251.641607915616,18801.13538033504
2.451225612806403,899.9313779904132,900.1217027693411,0.07585835878568718,0.0,0.18329209375576047,0.21441287369920173,0.04766747200554245,1251.5455581486658,18817.404262330372
2.4612306153076537,899.988231401199,900.1812477944811,0.07630164608591297,0.0,0.18342905879229487,0.21427548036225602,0.04766679484611681,1251.4493300185345,18833.65268277598
2.4712356178089045,900.0450240092234,900.2406719358329,0.07674575487335167,0.0,0.18356627766333222,0.21413783226341307,0.04766611622052839,1251.352923445735,18849.880697148237
2.481240620310155,900.1017597644613,900.2999805369353,0.07719068552044885,0.0,0.18370375048525978,0.2139999292860208,0.04766543612835876,1251.2563383495026,18866.088360779886
2.4912456228114057,900.1584425311308,900.3591787724748,0.07763643840521024,0.0,0.18384147737614648,0.21386177131171122,0.04766475456913501,1251.1595746478415,18882.27572885854
2.501250625312656,900.2150760931673,900.4182716521811,0.07808301391100603,0.0,0.18397945845568295,0.2137233582204608,0.04766407154233124,1251.0626322575663,18898.44285642528
2.511255627813907,900.2716641598249,900.4772640244856,0.07853041242637883,0.0,0.184117693845124,0.2135846898906495,0.04766338704737001,1250.9655110943452,18914.589798373454
2.5212606303151577,900.3282103714213,900.5361605799172,0.07897863434485475,0.0,0.18425618366723048,0.2134457661991193,0.04766270108362376,1250.8682110727407,18930.716609447605
2.531265632816408,900.3847183052542,900.5949658542082,0.07942768006475863,0.0,0.18439492804621385,0.21330658702123106,0.047662013650416175,1250.7707321062514,18946.823344242548
2.541270635317659,900.4411914817831,900.653684231271,0.0798775499890275,0.0,0.18453392710767896,0.21316715223092186,0.04766132474702358,1250.6730741073522,18962.910057202753
2.551275637818909,900.4976333710283,900.7123199458688,0.08032824452502758,0.0,0.18467318097856897,0.21302746170076178,0.04766063437267633,1250.5752369875352,18978.976802621826
2.56128064032016,900.5540473992396,900.7708770859871,0.08077976408437365,0.0,0.18481268978711016,0.2128875153020093,0.047659942526560174,1250.4772206573496,18995.023634642224
2.571285642821411,900.6104369558867,900.8293595949237,0.08123210908274982,0.0,0.1849524536627577,0.21274731290466672,0.047659249207817535,1250.37902502644,19011.050607255143
2.581290645322661,900.6668054010089,900.8877712730831,0.08168527993973114,0.0,0.18509247273614135,0.21260685437753526,0.04765855441554887,1250.2806500035877,19027.057774300556
2.591295647823912,900.7231560729741,900.9461157794606,0.08213927707860598,0.0,0.1852327471390116,0.21246613958826951,0.04765785814881401,1250.182095496748,19043.045189467553
2.6013006503251623,900.7794922966983,901.0043966328046,0.08259410092619819,0.0,0.1853732770041857,0.21232516840343268,0.047657160406633495,1250.0833614130904,19059.012906294836
2.611305652826413,900.8358173923781,901.0626172124341,0.08304975191268951,0.0,0.1855140624654935,0.2121839406885511,0.0476564611879898,1249.9844476590372,19074.960978171475
2.621310655327664,900.8921346848101,901.1207807586431,0.08350623047144178,0.0,0.18565510365772375,0.2120424563081692,0.04765576049182879,1249.885354140303,19090.88945833784
2.6313156578289143,900.9484475133698,901.1788903728171,0.08396353703881605,0.0,0.18579640071656897,0.21190071512590516,0.047655058317060926,1249.786080761935,19106.798399886906
2.641320660330165,901.0047592426816,901.2369490171689,0.08442167205398973,0.0,0.18593795377856992,0.21175871700450746,0.047654354662562765,1249.6866274283518,19122.687855765835
2.6513256628314155,901.0610732740872,901.2949595140166,0.08488063595877197,0.0,0.1860797629810596,0.21161646180591173,0.04765364952717824,1249.5869940433854,19138.557878777832
2.6613306653326663,901.1173930579941,901.3529245446267,0.0853404291974164,0.0,0.1862218284621064,0.21147394939129854,0.04765294290972007,1249.4871805103228,19154.408521584315
2.671335667833917,901.1737221072027,901.4108466475958,0.0858010522164298,0.0,0.18636415036045573,0.21133117962115247,0.04765223480897123,1249.3871867319465,19170.23983670742
2.6813406703351674,901.2300640113082,901.4687282167505,0.08626250546437657,0.0,0.18650672881547098,0.2111881523553223,0.047651525223686375,1249.2870126105788,19186.05187653288
2.6913456728364182,901.2864224522934,901.5265714985451,0.08672478939167803,0.0,0.18664956396707236,0.21104486745308304,0.04765081415259335,1249.186658048126,19201.844693313335
2.7013506753376686,901.3428012214339,901.5843785889322,0.08718790445040558,0.0,0.18679265595567404,0.21090132477319967,0.04765010159439472,1249.0861229461236,19217.618339171986
2.7113556778389194,901.3992042376852,901.6421514296378,0.08765185109406791,0.0,0.18693600492211965,0.21075752417399288,0.0476493875477694,1248.9854072057833,19233.3728661068
2.72136068034017,901.4556355676848,901.6998918039039,0.08811662977738947,0.0,0.1870796110076148,0.21061346551340732,0.04764867201137429,1248.8845107280415,19249.10832599514
2.7313656828414206,901.512099447379,901.7576013317465,0.08858224095608022,0.0,0.18722347435365735,0.21046914864908262,0.04764795498384604,1248.783433413611,19264.82477059905
2.7413706853426714,901.5686003055927,901.8152814645823,0.08904868508659684,0.0,0.18736759510196482,0.2103245734384272,0.047647236463802825,1248.682175163033,19280.52225157111
2.7513756878439217,901.6251427896844,901.8729334792795,0.08951596262589337,0.0,0.18751197339439846,0.21017973973869497,0.04764651644984622,1248.580735876731,19296.200820460857
2.7613806903451725,901.6817317934677,901.9305584716561,0.08998407403116102,0.0,0.18765660937288448,0.210034647407066,0.04764579494056326,1248.4791154550705,19311.860528721987
2.7713856928464233,901.7383724875964,901.9881573494547,0.09045301975955543,0.0,0.18780150317933098,0.20988929630073014,0.047645071934528396,1248.3773137984176,19327.501427720243
2.7813906953476737,901.7950703526295,902.0457308248481,0.09092280026791155,0.0,0.18794665495554158,0.20974368627697562,0.047644347430305746,1248.2753308072013,19343.12356874216
2.7913956978489245,901.8518312149959,902.1032794065469,0.09139341601244445,0.0,0.1880920648431244,0.20959781719328066,0.047643621426451344,1248.1731663819805,19358.72700300471
2.801400700350175,901.9086612861543,902.1608033915787,0.09186486744843578,0.0,0.18823773298339683,0.20945168890741098,0.04764289392151555,1248.0708204235136,19374.311781665867
2.8114057028514257,901.9655672053108,902.2183028568685,0.09233715502990467,0.0,0.18838365951728553,0.20930530127752064,0.047642164914045555,1247.9682928328295,19389.87795583629
2.8214107053526765,902.0225560854093,902.2757776510491,0.09281027920926428,0.0,0.18852984458522223,0.2091586541622586,0.047641434402587994,1247.8655835113043,19405.42557659214
2.831415707853927,902.0796355630655,902.3332273865002,0.0932842404369641,0.0,0.18867628832703504,0.20901174742087877,0.047640702385691784,1247.7626923607402,19420.95469498912
2.8414207103551776,902.13681385267,902.3906514319807,0.09375903916111718,0.0,0.18882299088183513,0.20886458091335508,0.04763996886191087,1247.6596192834472,19436.46536207782
2.851425712856428,902.194099804852,902.4480489062752,0.0942346758271141,0.0,0.1889699523878996,0.20871715450050074,0.047639233829807275,1247.5563641823278,19451.957628920536
2.861430715357679,902.2515029695256,902.5054186733482,0.0947111508772254,0.0,0.18911717298255065,0.20856946804409093,0.0476384972879541,1247.4529269609666,19467.431546609616
2.8714357178589296,902.3090336637256,902.5627593396222,0.09518846475019437,0.0,0.189264652802032,0.20842152140698825,0.04763775923493871,1247.3493075237182,19482.88716628746
2.88144072036018,902.3667030444034,902.6200692541187,0.09566661788082445,0.0,0.1894123919813833,0.2082733144532704,0.04763701966936586,1247.2455057757982,19498.324539168327
2.8914457228614308,902.4245231863639,902.6773465123424,0.09614561069956536,0.0,0.18956039065431463,0.20812484704835768,0.04763627858986086,1247.1415216233754,19513.743716562036
2.901450725362681,902.4825071658469,902.7345889649228,0.09662544363210177,0.0,0.18970864895308137,0.2079761190591399,0.04763553599507274,1247.0373549736626,19529.144749899802
2.911455727863932,902.5406691486634,902.7917942326073,0.09710611709895879,0.0,0.1898571670083645,0.20782713035409853,0.04763479188367721,1246.9330057350016,19544.527690762137
2.9214607303651827,902.5990244831969,902.8489597288128,0.09758763151513146,0.0,0.19000594494915765,0.20767788080342064,0.047634046254379496,1246.8284738169473,19559.892590909047
2.931465732866433,902.6575897984717,902.9060826914599,0.09806998728974908,0.0,0.19015498290266547,0.2075283702791028,0.04763329910591681,1246.7237591303399,19575.23950231255
2.941470735367684,902.7163831066614,902.9631602261114,0.09855318482579131,0.0,0.19030428099421706,0.20737859865503858,0.047632550437060356,1246.6188615873698,19590.56847719183
2.9514757378689342,902.7754239094925,903.0201893626399,0.09903722451987415,0.0,0.19045383934720053,0.20722856580708496,0.04763180024661695,1246.51378110162,19605.879568050856
2.961480740370185,902.8347333077875,903.0771671279008,0.0995221067621288,0.0,0.1906036580830265,0.20707827161309944,0.04763104853342957,1246.4085175880982,19621.172827718754
2.971485742871436,902.894334113167,903.1340906371153,0.10000783193619915,0.0,0.1907537373211266,0.2069277159529412,0.047630295296377134,1246.3030709632335,19636.448309392854
2.981490745372686,902.9542509606761,903.1909572068552,0.10049440041938924,0.0,0.19090407717899815,0.20677689870842547,0.047629540534373044,1246.1974411448455,19651.706066684525
2.991495747873937,903.0145104215039,903.2477644928533,0.100981812582994,0.0,0.1910546777723041,0.20662581976322164,0.04762878424636201,1246.0916280520696,19666.946153667872
3.0015007503751874,903.075141112725,903.3045106558343,0.10147006879285977,0.0,0.19120553921504263,0.20647447900268076,0.04762802643131521,1245.9856316052349,19682.168624931084
3.011505752876438,903.1361738011848,903.3611945575869,0.10195916941021857,0.0,0.1913566616198002,0.20632287631357774,0.04762726708822305,1245.8794517256783,19697.37353563
3.0215107553776885,903.197641500698,903.4178159904815,0.10244911479284138,0.0,0.1915080450981006,0.206171011583756,0.04762650621608534,1245.77308833549,19712.560941544183
3.0315157578789393,903.2595795589668,903.4743759425562,0.10293990529656727,0.0,0.19165968976086872,0.2060188847016556,0.047625743813898364,1245.6665413571766,19727.730899135164
3.04152076038019,903.3220257308703,903.5308768996003,0.10343154127726513,0.0,0.19181159571902537,0.2058664955557083,0.04762497988063833,1245.559810713227,19742.88346560635
3.0515257628814405,903.385020234526,903.587323184634,0.10392402309328809,0.0,0.191963763084231,0.20571384403358006,0.04762421441524085,1245.4528963255711,19758.01869896435
3.0615307653826913,903.4486057862687,903.6437213338079,0.10441735110847947,0.0,0.19211619196979762,0.20556093002124404,0.04762344741657574,1245.345798114914,19773.136658081086
3.0715357678839417,903.5128276105538,903.7000805060379,0.10491152569578703,0.0,0.19226888249178453,0.20540775340186526,0.0476226788834169,1245.238515999942,19788.237402756084
3.0815407703851925,903.5777334213002,903.7564129224007,0.10540654724154155,0.0,0.19242183477029579,0.20525431405448077,0.047621908814406616,1245.1310498963726,19803.32099377849
3.0915457728864433,903.6433733701977,903.8127343287182,0.10590241615045366,0.0,0.19257504893099564,0.20510061185245787,0.04762113720801397,1245.023399715855,19818.3874929879
3.1015507753876936,903.7097999563618,903.8690644674283,0.10639913285133112,0.0,0.19272852510684232,0.20494664666173015,0.047620364062487236,1244.9155653647067,19833.436963332108
3.1115557778889444,903.7770678971708,903.9254275501412,0.10689669780354633,0.0,0.19288226344004966,0.20479241833880188,0.04761958937580004,1244.8075467424849,19848.469468921827
3.121560780390195,903.8452339571022,903.9818527156468,0.10739511150424848,0.0,0.19303626408427416,0.2046379267285229,0.047618813145591334,1244.6993437403937,19863.485075081175
3.1315657828914456,903.9143567329517,904.0383744560553,0.10789437449628829,0.0,0.19319052720701857,0.2044831716616434,0.04761803536909941,1244.5909562395352,19878.48384839271
3.1415707853926964,903.9844963951548,904.0950329923619,0.10839448737679534,0.0,0.1933450529922332,0.20432815295216722,0.04761725604309027,1244.4823841090151,19893.465856735867
3.1515757878939468,904.0557143862665,904.1518745798043,0.10889545080631924,0.0,0.19349984164308823,0.20417287039453125,0.047616475163781403,1244.3736272039243,19908.431169317755
3.1615807903951976,904.1280730791126,904.2089517234484,0.1093972655184139,0.0,0.19365489338488026,0.2040173237606483,0.047615692726761534,1244.2646853632216,19923.379856695206
3.171585792896448,904.2016353987341,904.266323286328,0.10989993232952021,0.0,0.19381020846802946,0.20386151279685724,0.047614908726907684,1244.1555584075518,19938.311990787322
3.1815907953976987,904.2764644130024,904.3240544756022,0.11040345214900804,0.0,0.19396578717112462,0.20370543722082485,0.04761412315830067,1244.0462461370278,19953.227644877996
3.1915957978989495,904.352622898983,904.3822166867875,0.11090782598905666,0.0,0.19412162980391912,0.20354909671849644,0.04761333601414151,1243.936748329048,19968.1268936062
3.2016008004002,904.4301728946609,904.4408872057187,0.11141305497421182,0.0,0.1942777367102286,0.20339249094114722,0.04761254728667004,1243.827064736185,19983.009812944907
3.2116058029014507,904.5091752441672,904.5001487669199,0.11191914035041478,0.0,0.19443410827066812,0.20323561950259586,0.047611756967087464,1243.7171950841914,19997.876480168554
3.221610805402701,904.5896891461572,904.5600889719937,0.11242608349325257,0.0,0.1945907449051523,0.20307848197665895,0.04761096504548463,1243.6071390701745,20012.726973808796
3.231615807903952,904.6717717151014,904.6207995791261,0.11293388591520759,0.0,0.19474764707509218,0.2029210778949137,0.04761017151077787,1243.4968963609956,20027.561373598837
3.2416208104052027,904.755477564966,904.6823756807122,0.11344254927170332,0.0,0.1949048152852256,0.20276340674483276,0.04760937635065412,1243.3864665919314,20042.379760407006
3.251625812906453,904.8408584240755,904.7449147911818,0.11395207536577115,0.0,0.1950622500850293,0.202605467968344,0.047608579551526406,1243.2758493656404,20057.18221616013
3.261630815407704,904.9279627888031,904.808515871044,0.11446246615120222,0.0,0.19521995206967013,0.20244726096085838,0.04760778109850096,1243.1650442514642,20071.968823758056
3.271635817908954,905.0168356209942,904.8732783148271,0.11497372373413774,0.0,0.19537792188048209,0.2022887850707797,0.04760698097535609,1243.0540507850696,20086.73966698036
3.281640820410205,905.1075180969707,904.9393009309048,0.1154858503729008,0.0,0.19553616020490908,0.20213003959955683,0.04760617916453446,1242.9428684684854,20101.49483038602
3.291645822911456,905.2000474114365,905.0066809459281,0.11599884847609225,0.0,0.1956946677759198,0.2019710238022723,0.0476053756471484,1242.8314967705112,20116.234399207737
3.301650825412706,905.2944566347626,905.0755130580642,0.11651272059907637,0.0,0.1958534453709332,0.2018117368887277,0.04760457040299718,1242.719935127491,20130.958459243007
3.311655827913957,905.3907746244986,905.1458885615018,0.11702746943887177,0.0,0.19601249381025881,0.20165217802502144,0.04760376341059595,1242.6081829444336,20145.667096742753
3.3216608304152073,905.4890259893973,905.2178945607762,0.11754309782754303,0.0,0.1961718139550812,0.20149234633558988,0.04760295464721537,1242.4962395964608,20160.360398299217
3.331665832916458,905.589231102913,905.29161328869,0.11805960872421573,0.0,0.1963314067050248,0.20133224090567328,0.04760214408893098,1242.3841044305632,20175.038450734188
3.341670835417709,905.6914061621037,905.3671215367448,0.1185770052058524,0.0,0.19649127299534175,0.20117186078416457,0.047601331710680865,1242.271776767627,20189.701340989017
3.3516758379189593,905.795563287092,905.4444902022623,0.11909529045693985,0.0,0.19665141379376758,0.20101120498679467,0.04760051748633023,1242.1592559046976,20204.349156017317
3.36168084042021,905.9017106547169,905.5237839503095,0.1196144677582603,0.0,0.1968118300970966,0.20085027249960097,0.047599701388741214,1242.0465411174462,20218.981982681405
3.3716858429214605,906.0098526625419,905.6050609887311,0.12013454047483374,0.0,0.19697252292750425,0.2006890622826521,0.047598883389847184,1241.933631662821,20233.599907653053
3.3816908454227113,906.1199901192389,905.6883729540317,0.12065551204316102,0.0,0.19713349332865482,0.2005275732739894,0.04759806346073013,1241.820526781844,20248.203017319745
3.391695847923962,906.2321204518305,905.7737648917188,0.1211773859579763,0.0,0.19729474236165764,0.20036580439372007,0.04759724157169918,1241.7072257025209,20262.791397696627
3.4017008504252124,906.3462379261214,905.8612753224359,0.12170016575856847,0.0,0.1974562711008897,0.2002037545482445,0.047596417692369324,1241.5937276428429,20277.365134344545
3.4117058529264632,906.4623338757592,905.9509363826996,0.12222385501474833,0.0,0.1976180806297078,0.20004142263459349,0.047595591791739424,1241.480031813862,20291.924312294406
3.4217108554277136,906.5803969356591,906.0427740284108,0.12274845731251838,0.0,0.19778017203606674,0.1998788075448583,0.0475947638382687,1241.3661374228336,20306.469015977884
3.4317158579289644,906.7004132760591,906.1368082894816,0.12327397623947879,0.0,0.19794254640805367,0.1997159081707033,0.04759393379995074,1241.252043676411,20320.999329164675
3.441720860430215,906.8223668340015,906.2330535644628,0.12380041536997691,0.0,0.19810520482934035,0.19955272340795882,0.047593101644384704,1241.1377497838985,20335.515334906
3.4517258629314655,906.9462395392968,906.3315189441477,0.1243277782499811,0.0,0.1982681483745467,0.1993892521612999,0.04759226733884292,1241.0232549605564,20350.017115484312
3.4617308654327164,907.0720115329233,906.4322085547541,0.12485606838160139,0.0,0.19843137810449174,0.1992254933490365,0.04759143085033496,1240.908558430985,20364.504752368633
3.4717358679339667,907.1996613777251,906.535121917368,0.12538528920726466,0.0,0.1985948950613338,0.19906144590801078,0.047590592145667666,1240.7936594325806,20378.978326176377
3.4817408704352175,907.3291662577908,906.6402543103644,0.125915444093438,0.0,0.19875870026356687,0.1988971087986364,0.04758975119150106,1240.6785572190824,20393.437916640458
3.4917458729364683,907.4605021662543,906.7475971300908,0.12644653631376201,0.0,0.1989227947008304,0.1987324810101212,0.04758890795439986,1240.563251064252,20407.88360258145
3.5017508754377187,907.5936440811461,906.85713824552,0.12697856903146665,0.0,0.19908717932849251,0.19856756156591396,0.04758806240088096,1240.4477402656992,20422.315461884442
3.5117558779389695,907.7285661289682,906.9688623428788,0.1275115452809088,0.0,0.19925185506195744,0.19840234952942454,0.047587214497456634,1240.3320241488989,20436.733571480458
3.52176088044022,907.8652417358988,907.0827512571417,0.12804546794804622,0.0,0.1994168227706392,0.1982368440100747,0.04758636421067381,1240.2161020714352,20451.138007331887
3.5317658829414706,908.0036437667111,907.1987842880553,0.1285803397496371,0.0,0.19958208327153665,0.19807104416974564,0.04758551150714952,1240.0999734275185,20465.52884442173
3.5417708854427215,908.1437446516161,907.3169384989121,0.1291161632109189,0.0,0.1997476373223336,0.19790494922969812,0.04758465635360257,1239.9836376528292,20479.906156746194
3.551775887943972,908.2855165013732,907.4371889965815,0.1296529406413973,0.0,0.19991348561390923,0.19773855847807967,0.04758379871688193,1239.8670942297695,20494.270017309995
3.5617808904452226,908.4289312114242,907.5595091941948,0.13019067410864782,0.0,0.20007962876222907,0.19757187127804957,0.047582938563991664,1239.7503426931419,20508.62049812509
3.571785892946473,908.5739605549779,907.6838710542964,0.1307293654097727,0.0,0.20024606729950584,0.1974048870766318,0.047582075862112806,1239.6333826363327,20522.957670211967
3.5817908954477238,908.7205762657385,907.8102453124773,0.13126901604000682,0.0,0.2004128016644728,0.19723760541445365,0.04758121057862243,1239.5162137181123,20537.281603602914
3.5917958979489746,908.8687501108926,907.9386016823775,0.13180962715811742,0.0,0.2005798321916603,0.19707002593647985,0.047580342681110034,1239.3988356701252,20551.592367347148
3.601800900450225,909.0184539548885,908.068909042592,0.13235119954813615,0.0,0.20074715909953186,0.196902148403885,0.047579472137391686,1239.2812483051732,20565.89002951763
3.6118059029514757,909.1696598145344,908.2011356061429,0.13289373357690937,0.0,0.20091478247732067,0.19673397270722492,0.047578598915521735,1239.1634515264016,20580.17465721939
3.621810905452726,909.3223399059154,908.3352490732815,0.13343722914689268,0.0,0.20108270227038866,0.1965654988810836,0.04757772298380277,1239.0454453375112,20594.44631659896
3.631815907953977,909.4764666836116,908.4712167684329,0.1339816856435487,0.0,0.2012509182639091,0.19639672712039558,0.04757684431079367,1238.9272298541387,20608.70507285492
3.6418209104552277,909.6320128727496,908.6090057620987,0.13452710187642652,0.0,0.2014194300645874,0.1962276577987296,0.04757596286531608,1238.8088053166,20622.950990248875
3.651825912956478,909.7889514941718,908.7485829788444,0.13507347601331351,0.0,0.20158823708023055,0.1960582914887222,0.04757507861645953,1238.6901721041338,20637.184132117378
3.661830915457729,909.9472558828752,908.8899152918289,0.1356208055070018,0.0,0.2017573384970236,0.19588862898480358,0.04757419153358503,1238.5713307507372,20651.404560884712
3.6718359179589792,910.10689970036,909.0329696047023,0.13616908701307626,0.0,0.20192673325401875,0.19571867132871,0.04757330158632769,1238.4522819629474,20665.61233807568
3.68184092046023,910.2678569410597,909.1777129217776,0.13671831629779527,0.0,0.20209642001454942,0.19554841983807097,0.04757240874459842,1238.3330266397588,20679.807524328447
3.691845922961481,910.4301019330541,909.3241124071914,0.137268488134863,0.0,0.202266397134196,0.19537787613844404,0.0475715129785847,1238.2135658949503,20693.990179407443
3.701850925462731,910.5936093332188,909.4721354337121,0.13781959618973103,0.0,0.2024366626248813,0.19520704219921908,0.04757061425875084,1238.0939010820996,20708.160362216076
3.711855927963982,910.7583541169153,909.6217496217929,0.138371632889917,0.0,0.20260721411462584,0.19503592037386344,0.04756971255583751,1237.9740338226272,20722.318130809213
3.7218609304652324,910.9243115622676,909.7729228693983,0.13892458927966259,0.0,0.20277804880244285,0.19486451344502564,0.04756880784086091,1237.8539660372255,20736.463542405243
3.731865932966483,911.0914572290638,909.9256233731223,0.13947845485678417,0.0,0.20294916340770705,0.1946928246751665,0.04756790008511174,1237.7336999811355,20750.59665339743
3.741870935467734,911.2597669321488,910.0798196409964,0.1400332173892417,0.0,0.2031205541132285,0.194520857863484,0.0475669892601538,1237.613238283813,20764.717519364534
3.7518759379689843,911.4292167089703,910.2354804969439,0.14058886271122867,0.0,0.20329221650197182,0.19434861740919357,0.047566075337822526,1237.4925839930206,20778.82619508118
3.761880940470235,911.5997827814365,910.3925750775136,0.14114537449459202,0.0,0.20346414548611874,0.19417610838246419,0.04756515829022341,1237.3717406242547,20792.922734527092
3.7718859429714855,911.7714415117293,910.5510728210057,0.14170273399299246,0.0,0.2036363352276712,0.1940033366038145,0.04756423808973076,1237.2507122160678,20807.007190895107
3.7818909454727363,911.944169351736,910.710943449059,0.1422609197560327,0.0,0.20380877904973524,0.1938303087328285,0.0475633147089865,1237.129503391886,20821.079616597985
3.791895947973987,912.1179427857217,910.872156940719,0.14281990731014263,0.0,0.20398146933748773,0.19365703236718793,0.047562388120899385,1237.0081194290115,20835.140063273855
3.8019009504752375,912.2927382658032,911.0346834989509,0.1433796688027653,0.0,0.204154397427755,0.19348351615309364,0.047561458298644735,1236.8865663355657,20849.188581790102
3.8119059529764883,912.4685321397307,911.1984935094747,0.14394017260615286,0.0,0.20432755348605716,0.19330976990822138,0.047560525215664555,1236.7648509361636,20863.225222245546
3.8219109554777386,912.6453005704062,911.3635574917645,0.14450138287658568,0.0,0.2045009263698188,0.19313580475851166,0.04755958884566845,1236.642980967229,20877.2500339707
3.8319159579789894,912.823019446327,911.5298460419036,0.14506325906277615,0.0,0.20467450347581104,0.19296163329072868,0.04755864916263547,1236.5209651832977,20891.2630655256
3.8419209604802402,913.0016642825907,911.6973297668917,0.1456257553644252,0.0,0.20484827057212404,0.19278726972048976,0.04755770614081651,1236.3988134741019,20905.264364695908
3.8519259629814906,913.1812101118845,911.8659792103415,0.14618882013466278,0.0,0.2050222116127255,0.19261273007770868,0.04755675975473805,1236.2765369937872,20919.253978486457
3.8619309654827414,913.3616313645257,912.0357647690686,0.14675239522035455,0.0,0.2051963085327375,0.1924380324113223,0.04755580997920688,1236.154148303567,20933.231953111823
3.8719359679839918,913.5429017369395,912.2066566001621,0.1473164152374501,0.0,0.20537054102355493,0.19226319701417569,0.047554856789316355,1236.0316615284266,20947.198333983895
3.8819409704852426,913.7249940479314,912.3786245181251,0.14788080677789112,0.0,0.20554488628672546,0.19208824666914745,0.047553900160454084,1235.909092528624,20961.15316569615
3.891945972986493,913.9078800821871,912.5516378817046,0.14844548754527614,0.0,0.2057193187657204,0.19191320691738442,0.04755294006831137,1235.7864590865986,20975.096492004304
3.9019509754877437,914.0915304205591,912.7256654700751,0.14901036541750065,0.0,0.20589380985504444,0.19173810634919913,0.047551976488894414,1235.6637811096732,20989.028355803195
3.9119559779889945,914.275914256869,912.9006753481319,0.1495753374358555,0.0,0.20606832758652321,0.19156297691779087,0.047551009398537604,1235.5410808486588,21002.94879909938
3.921960980490245,914.4609992005564,913.0766347203968,0.1501402887173166,0.0,0.20624283629175513,0.19138785427680358,0.0475500387739192,1235.4183831330683,21016.857862978974
3.9319659829914957,914.6467510663929,913.2535097740213,0.1507050913013001,0.0,0.2064172962442259,0.19121277813822263,0.047549064592079374,1235.2957156205048,21030.755587570962
3.941970985492746,914.8331336529405,913.4312655119109,0.15126960294282543,0.0,0.20659166328479178,0.19103779264690485,0.04754808683044056,1235.1731090576395,21044.642012005916
3.951975987993997,915.020108509628,913.6098655757642,0.15183366585262342,0.0,0.2067658884306983,0.19086294677157414,0.04754710546683097,1235.0505975526637,21058.517174369066
3.9619809904952477,915.2076346950502,913.7892720604405,0.15239710540417456,0.0,0.20693991747433643,0.1906882947060823,0.0475461204795109,1234.9282188548923,21072.381111647883
3.971985992996498,915.3956685295311,913.9694453213706,0.15295972883000009,0.0,0.20711369057866363,0.19051389627400692,0.047545131847202306,1234.806014636695,21086.233859674026
3.981990995497749,915.5841633459835,914.1503437773631,0.15352132393603488,0.0,0.20728714187823546,0.1903398173276398,0.04754413954912163,1234.684030771518,21100.07545305963
3.991995997998999,915.7730692442608,914.3319237119065,0.15408165787058684,0.0,0.2074601990971772,0.1901661301300388,0.047543143565015974,1234.562317600104,21113.905925127903
4.00200100050025,915.9623328555274,914.5141390769311,0.15464047599279537,0.0,0.20763278319803266,0.18999291370620414,0.04754214387520277,1234.440930175199,21127.725307838376
4.012006003001501,916.1518971236878,914.6969413033229,0.15519750088894876,0.0,0.20780480807649768,0.18982025414837173,0.04754114046061291,1234.3199284742866,21141.533631706698
4.022011005502751,916.3417011136278,914.8802791242207,0.15575243160281024,0.0,0.20797618032256676,0.18964824485489662,0.04754013330283741,1234.1993775660485,21155.330925719685
4.0320160080040015,916.5316798608973,915.0640984207822,0.15630494317306573,0.0,0.20814679907698866,0.18947698667382812,0.047539122384176576,1234.0793477104132,21169.117217247895
4.042021010505253,916.7217642705009,915.2483420952544,0.15685468652908452,0.0,0.20831655599891702,0.18930658793529226,0.04753810768769215,1233.9599143811272,21182.89253195517
4.052026013006503,916.9118810787414,915.4329499805639,0.15740128883380775,0.0,0.20848533537231914,0.18913716434511754,0.047537089197261836,1233.8411581916362,21196.656893706855
4.0620310155077535,917.1019528918221,915.617858795768,0.15794435435871815,0.0,0.2086530143775062,0.18896883871334047,0.04753606689763553,1233.7231647059139,21210.410324478566
4.072036018009005,917.2918983143653,915.8030021566125,0.15848346596981597,0.0,0.20881946355227804,0.1888017404930964,0.047535040774492505,1233.6060241171656,21224.152844267373
4.082041020510255,917.481632179864,915.9883106500456,0.15901818729302225,0.0,0.20898454746391745,0.18863600510866224,0.04753401081449866,1233.489830779613,21237.884471007852
4.092046023011505,917.6710658928798,916.173711980507,0.1595480656097056,0.0,0.20914812560776586,0.18847177305691565,0.04753297700536276,1233.3746825823964,21251.605220495374
4.102051025512757,917.8601078891567,916.3591311937907,0.16007263550621764,0.0,0.20931005353979446,0.18830918877479866,0.047531939335890686,1233.2606801604281,21265.315106319213
4.112056028014007,918.0486642161225,916.5444909821049,0.16059142327556641,0.0,0.20947018424259098,0.1881483992733632,0.04753089779603655,1233.1479259426044,21279.0141398076
4.122061030515257,918.2366392326984,916.7297120733882,0.16110395203083483,0.0,0.20962836971222693,0.18798955255093244,0.0475298523769483,1233.0365230461032,21292.702329990254
4.132066033016508,918.4239364140226,916.914713697954,0.161609747415799,0.0,0.2097844627304601,0.18783279582092346,0.04752880307100709,1232.9265740415422,21306.379683578703
4.142071035517759,918.6104592453609,917.0994141253697,0.16210834378354164,0.0,0.20993831878217592,0.18767827359442635,0.047527749871859586,1232.8181796169333,21320.046204966617
4.152076038019009,918.7961121822882,917.2837312601416,0.16259929066441425,0.0,0.21008979806262879,0.18752612567297786,0.047526692774441735,1232.7114371790635,21333.701896252172
4.16208104052026,918.9808016481459,917.4675832804771,0.16308215930861755,0.0,0.21023876750784534,0.1873764851181669,0.04752563177499295,1232.6064394387356,21347.346757283645
4.172086043021511,919.1644370356084,917.6508893012606,0.16355654906558306,0.0,0.2103851027743876,0.18722947627187442,0.04752456687106023,1232.5032730312914,21360.980785728534
4.182091045522761,919.3469316770344,917.8335700402837,0.16402209335454013,0.0,0.2105286900922521,0.1870852129033697,0.04752349806149157,1232.4020172255346,21374.603977165683
4.192096048024012,919.5282037486553,918.0155484660814,0.16447846499143629,0.0,0.21066942791802937,0.18694379655614066,0.04752242534641892,1232.3027427718268,21388.216325199173
4.202101050525263,919.7081770788574,918.1967504078681,0.1649253806819674,0.0,0.21080722832928164,0.18680531515349835,0.04752134872723125,1232.2055109305004,21401.817821591176
4.212106053026513,919.8867818279903,918.3771051062203,0.16536260447206783,0.0,0.21094201809538848,0.18666984192770825,0.04752026820653698,1232.1103727257048,21415.408456413
4.222111055527764,920.0639550184516,918.5565456876468,0.16578995004564429,0.0,0.21107373939065288,0.18653743470685458,0.04751918378811762,1232.0173684485173,21428.988218209655
4.232116058029014,920.2396409078815,918.7350095547961,0.1662072818550377,0.0,0.2112023501451621,0.18640813556394523,0.04751809547687393,1231.926527412463,21442.55709417367
4.242121060530265,920.4137912001288,918.9124386849436,0.16661451508388328,0.0,0.21132782403329956,0.18628197082836223,0.047517003278765894,1231.8378679615146,21456.11507032469
4.252126063031516,920.5863650984147,919.0887798349092,0.1670116145123045,0.0,0.21145015012160917,0.18615895143795605,0.0475159072007476,1231.751397715445,21469.662131691228
4.262131065532766,920.7573292122835,919.2639846549595,0.16739859240274643,0.0,0.21156933221272453,0.18603907359507313,0.047514807250698635,1231.6671140269582,21483.19826249091
4.272136068034017,920.9266573354904,919.4380097179096,0.16777550556016074,0.0,0.21168538793306474,0.18592231967881515,0.04751370343735333,1231.585004617355,21496.723446305936
4.282141070535268,921.0943301158006,919.6108164724544,0.16814245174197145,0.0,0.2117983476187373,0.1858086593590908,0.0475125957702291,1231.5050483528048,21510.23766625104
4.292146073036518,921.2603346412702,919.782371132854,0.16849956560988402,0.0,0.2119082530592521,0.18569805085285696,0.04751148425955516,1231.4272161196848,21523.740905131704
4.302151075537768,921.42466396282,919.9526445145269,0.16884701438006156,0.0,0.21201515614761998,0.18559044227397545,0.04751036891620238,1231.3514717651492,21537.2331455913
4.31215607803902,921.5873165737687,920.1216118254773,0.16918499333516349,0.0,0.21211911748757498,0.18548577302594757,0.04750924975161474,1231.2777730675673,21550.71437024554
4.32216108054027,921.748295872562,920.2892524297715,0.16951372137511267,0.0,0.21222020501280855,0.18538397518263852,0.04750812677774391,1231.2060726985899,21564.18456180367
4.33216608304152,921.9076096232848,920.4555495915243,0.16983343670933432,0.0,0.21231849265010147,0.18528497482510603,0.047507000006986884,1231.1363191546259,21577.643703176327
4.3421710855427715,922.065269427763,920.6204902081058,0.1701443927817429,0.0,0.21241405905468005,0.18518869330620683,0.047505869452127134,1231.0684576379902,21591.091777570356
4.352176088044022,922.221290220143,920.7840645400247,0.17044685449533423,0.0,0.21250698643854588,0.1850950484222321,0.04750473512627933,1231.0024308732677,21604.52876857104
4.362181090545272,922.3756897918541,920.9462659434939,0.17074109477991722,0.0,0.21259735950529032,0.18500395547806017,0.04750359704283784,1230.938179849479,21617.95466021239
4.3721860930465235,922.5284883521816,921.1070906102834,0.1710273915261368,0.0,0.2126852644985791,0.18491532823864182,0.04750245521542882,1230.8756444830408,21631.36943703648
4.382191095547774,922.6797081276616,921.2665373186018,0.17130602489232688,0.0,0.21277078836633767,0.18482907976478694,0.04750130965786605,1230.8147642001074,21644.77308414267
4.392196098049024,922.8293730010116,921.4246071971903,0.17157727497391057,0.0,0.21285401803744622,0.18474512313644356,0.04750016038411014,1230.7554784405186,21658.165587228003
4.402201100550275,922.9775081881663,921.5813035019505,0.17184141982373685,0.0,0.2129350398073418,0.1846633720670721,0.04749900740823094,1230.6977270858595,21671.546932618858
4.412206103051526,923.1241399541942,921.7366314087385,0.17209873380168997,0.0,0.21301393882580594,0.1845837414158361,0.04749785074437327,1230.6414508163223,21684.91710729554
4.422211105552776,923.2692953649972,921.890597821694,0.17234948622164753,0.0,0.21309079867703004,0.18450614760751682,0.04749669040672552,1230.586591403274,21698.27609891065
4.4322161080540265,923.4130020719463,922.043211196559,0.17259394026616373,0.0,0.21316570104276655,0.18443050896934393,0.04749552640949095,1230.5330919439255,21711.62389580202
4.442221110555278,923.5552881265322,922.1944813784454,0.17283235213843526,0.0,0.21323872543911848,0.18435674599418958,0.0474943587668616,1230.4808970446977,21724.960487000906
4.452226113056528,923.6961818220396,922.3444194533176,0.1730649704218077,0.0,0.21330994901773725,0.18428478153935543,0.04749318749299447,1230.4299529597095,21738.285862236233
4.4622311155577785,923.8357115592738,922.4930376123382,0.17329203561845735,0.0,0.21337944642262682,0.18421454096975484,0.04749201260198983,1230.380207690521,21751.600011935374
4.47223611805903,923.9739057335107,922.6403490282223,0.17351377984055844,0.0,0.21344728969427057,0.1841459522537733,0.04749083410787158,1230.331611052904,21764.90292722216
4.48224112056028,924.1107926398994,922.7863677428644,0.17373042662696836,0.0,0.21351354821271334,0.18407894602017547,0.04748965202456925,1230.2841147164727,21778.194599912804
4.4922461230615305,924.2464003950168,922.9311085644238,0.17394219087324345,0.0,0.21357828867581508,0.18401345557984097,0.047488466365901774,1230.2376722198078,21791.475022509294
4.502251125562781,924.3807568725509,923.0745869738657,0.17414927885078893,0.0,0.21364157510516746,0.18394941691983832,0.04748727714556289,1230.1922389663087,21804.74418819127
4.512256128064032,924.5138896508821,923.2168190401579,0.17435188829520612,0.0,0.21370346887348757,0.18388676867602333,0.04748608437710775,1230.1477722050797,21818.002090806734
4.5222611305652824,924.6458259708392,923.3578213431218,0.17455020855167824,0.0,0.21376402874971343,0.18382545208793546,0.04748488807394097,1230.1042309994875,21831.248724861704
4.532266133066533,924.7765927021129,923.4976109032415,0.1747444207651335,0.0,0.21382331095799745,0.1837654109397979,0.0474836882493057,1230.0615761860327,21844.48408550913
4.542271135567784,924.9062163169808,923.6362051177796,0.1749346981046247,0.0,0.2138813692473202,0.18370659149089724,0.04748248491627393,1230.0197703258254,21857.708168537134
4.552276138069034,925.0347228701906,923.7736217026136,0.1751212060130394,0.0,0.21393825496896632,0.18364894239810248,0.04748127808773765,1229.9787776505839,21870.92097035678
4.562281140570285,925.1621379840076,923.90987863927,0.1753041024746981,0.0,0.2139940171595531,0.1835924146328308,0.047480067776401035,1229.9385640047626,21884.122487989567
4.572286143071536,925.2884868374177,924.044994126724,0.17548353829245913,0.0,0.21404870262701112,0.18353696139506304,0.04747885399477321,1229.8990967856287,21897.312719054822
4.582291145572786,925.4137941590178,924.1789865373368,0.17565965737397105,0.0,0.21410235603940428,0.1834825380245194,0.047477636755162075,1229.8603448813594,21910.491661756856
4.592296148074037,925.5380842231199,924.311874376697,0.17583259702350978,0.0,0.21415502001548456,0.1834291019101012,0.04747641606966878,1229.8222786079318,21923.65931487172
4.602301150575287,925.661380848121,924.4436762470935,0.1760024882302362,0.0,0.2142067352141368,0.183376612400443,0.04747519195018282,1229.7848696467872,21936.81567773426
4.612306153076538,925.7837073968549,924.5744108142186,0.17616945595294797,0.0,0.21425754042273695,0.1833250307155519,0.04747396440837772,1229.7480909832536,21949.96075022522
4.622311155577789,925.9050867785691,924.7040967768141,0.1763336193994741,0.0,0.214307472643848,0.18327431986010864,0.04747273345570735,1229.7119168461288,21963.09453275842
4.632316158079039,926.0255414522155,924.8327528390072,0.17649509229910273,0.0,0.2143565671797556,0.1832244445389307,0.04747149910340264,1229.6763226487674,21976.217026268103
4.64232116058029,926.1450934307983,924.9603976851114,0.17665398316691622,0.0,0.21440485771449225,0.1831753710749456,0.0474702613624689,1229.6412849319204,21989.328232196403
4.652326163081541,926.263764286559,925.0870499566809,0.17681039555915062,0.0,0.21445237639307757,0.1831270673299499,0.04746902024368342,1229.6067813085135,22002.42815248104
4.662331165582791,926.3815751567349,925.2127282316223,0.17696442831811982,0.0,0.21449915389752014,0.18307950262860562,0.04746777575759359,1229.572790410687,22015.516789543202
4.672336168084042,926.498546749778,925.3374510051585,0.17711617580701614,0.0,0.21454521951967878,0.18303264768557792,0.04746652791451527,1229.5392918390169,22028.59414627578
4.682341170585293,926.6146993522937,925.461236672624,0.17726572813797975,0.0,0.21459060123203522,0.18298647453476222,0.04746527672453174,1229.5062661132008,22041.66022603141
4.692346173086543,926.7300527927952,925.584103516869,0.1774131710770437,0.0,0.21463532575540975,0.18294095646156605,0.04746402210026425,1229.473694692608,22054.7150326105
4.702351175587793,926.8446278530454,925.7060695778238,0.17755859643549202,0.0,0.2146794186077941,0.1828960679541095,0.047462767033111336,1229.441557729283,22067.75857025873
4.712356178089045,926.9584457882481,925.8271528886324,0.177702097639026,0.0,0.21472290409921774,0.18285178470851074,0.04746151622371163,1229.4098350261988,22080.79084369758
4.722361180590295,927.0715255000513,925.9473716350773,0.1778437496914468,0.0,0.2147658054448264,0.18280808351569564,0.04746026975020852,1229.3785103698156,22093.81185808659
4.732366183091545,927.183885440429,926.0667438306298,0.17798362393529552,0.0,0.21480814485440725,0.18276494217179626,0.04745902755948812,1229.34756833817,22106.82161899306
4.742371185592797,927.2955436773141,926.1852873018087,0.17812178864372794,0.0,0.2148499435835232,0.1827223394270172,0.0474577895997315,1229.3169941728931,22119.820132381647
4.752376188094047,927.4065179022189,926.3030196804625,0.17825830917709456,0.0,0.21489122198212002,0.18268025493702936,0.04745655582039926,1229.2867737453487,22132.807404604024
4.762381190595297,927.5168254376661,926.4199583968617,0.1783932481304056,0.0,0.21493199954030404,0.18263866921719243,0.04745532617221634,1229.2568935247482,22145.783442388976
4.7723861930965485,927.626483244823,926.5361206737684,0.1785266654750812,0.0,0.21497229493234912,0.18259756359854917,0.047454100607155845,1229.2273405474975,22158.74825283238
4.782391195597799,927.735507931007,926.651523521274,0.17865861869267696,0.0,0.2150121260582129,0.18255692018630965,0.047452879078422654,1229.198102388282,22171.7018433875
4.792396198099049,927.8439157569962,926.7661837322939,0.1787891629007874,0.0,0.21505151008262624,0.18251672182076287,0.047451661540437375,1229.1691671328422,22184.644221855513
4.8024012006003,927.951722644237,926.8801178787166,0.1789183509721861,0.0,0.21509046347208388,0.1824769520402873,0.04745044794882006,1229.1405233522103,22197.575396376335
4.812406203101551,928.0589441819325,926.9933423081598,0.17904623364748745,0.0,0.2151290020298252,0.1824375950463708,0.04744923826037401,1229.1121600783515,22210.49537541957
4.822411205602801,928.1655956340084,927.105873141278,0.17917285964164434,0.0,0.21516714092890232,0.1823986356705441,0.047448032433069484,1229.0840667811342,22223.404167775745
4.832416208104052,928.2716919459602,927.2177262695958,0.1792982757447032,0.0,0.2152048947434663,0.18236005934309554,0.04744683042602734,1229.0562333465434,22236.30178254767
4.842421210605303,928.377247751564,927.3289173538028,0.17942252691695712,0.0,0.21524227747831517,0.18232185206352433,0.04744563219950278,1229.0286500561072,22249.188229142055
4.852426213106553,928.4822773793593,927.4394618224115,0.17954565637838474,0.0,0.21527930259666814,0.18228400037276765,0.047444437714869524,1229.0013075675577,22262.06351726141
4.862431215607804,928.5867948591388,927.549374870909,0.179667705693986,0.0,0.21531598304666755,0.18224649132670012,0.04744324693460345,1228.9741968963776,22274.927656895983
4.872436218109055,928.6908139284063,927.6586714613704,0.17978871485491316,0.0,0.21535233128657613,0.18220931247093775,0.04744205982226607,1228.9473093982597,22287.78065831582
4.882441220610305,928.7943480386025,927.7673663223329,0.17990872235458272,0.0,0.21538835930841665,0.18217245181719993,0.04744087634248833,1228.9206367526472,22300.62253206309
4.8924462231115555,928.8974103612022,927.8754739489832,0.18002776526065084,0.0,0.21542407866032764,0.18213589782095516,0.04743969646095467,1228.8941709471742,22313.45328894463
4.902451225612806,929.0000137936973,927.9830086036385,0.18014587928312759,0.0,0.215459500467721,0.18209963936026477,0.04743852014438702,1228.8679042629346,22326.27294002461
4.912456228114057,929.1021709654532,928.0899843164902,0.1802630988387745,0.0,0.21549463545328607,0.18206366571578042,0.047437347360529056,1228.8418292605604,22339.081496617415
4.9224612306153075,929.2038942434546,928.1964148865976,0.18037945711209222,0.0,0.21552949395593562,0.18202796655179967,0.04743617807813048,1228.8159387670348,22351.878970280675
4.932466233116558,929.3051957379342,928.3023138831029,0.18049498611302137,0.0,0.21556408594873194,0.1819925318983415,0.0474350122669314,1228.7902258632153,22364.665372808453
4.942471235617809,929.4060873078321,928.4076946465988,0.1806097167313351,0.0,0.21559842105578522,0.18195735213424913,0.047433849897647234,1228.764683872073,22377.440716224643
4.9524762381190595,929.5065805661453,928.5125702906782,0.18072367878818435,0.0,0.21563250856826902,0.18192241797117634,0.04743269094195365,1228.7393063475497,22390.205012776536
4.96248124062031,929.6066868853432,928.61695370382,0.1808369010856389,0.0,0.21566635745981438,0.18188772043819507,0.04743153537247087,1228.714087063845,22402.95827492838
4.972486243121561,929.7064174025788,928.7208575513383,0.1809494114531972,0.0,0.2156999764009621,0.18185325086734447,0.0474303831627488,1228.6890200053601,22415.70051535516
4.982491245622811,929.8057830247761,928.8242942774591,0.18106123679178637,0.0,0.21573337377283663,0.18181900087995867,0.04742923428725216,1228.664099357186,22428.43174693657
4.992496248124062,929.9047944336165,928.9272761075201,0.181172403115476,0.0,0.21576655768010983,0.1817849623737046,0.04742808872134584,1228.6393194960833,22441.15198275108
5.002501250625312,930.0034620904278,929.0298150502869,0.1812829355910537,0.0,0.21579953596330131,0.18175112751028327,0.047426946441280496,1228.6146749819268,22453.861236070232
5.012506253126563,930.1017962409763,929.131922900373,0.18139285857557805,0.0,0.21583231621045076,0.181717488703759,0.0474258074241783,1228.5901605495858,22466.559520352945
5.022511255627814,930.199806920161,929.2336112407467,0.1815021956519914,0.0,0.21586490576818798,0.1816840386094908,0.04742467164801878,1228.5657711012238,22479.246849240084
5.032516258129064,930.2975039565872,929.3348914452978,0.18161096966283008,0.0,0.21589731175221227,0.18165077011365474,0.047423539091625104,1228.541501699013,22491.92323654909
5.042521260630315,930.3948969769981,929.4357746814122,0.18171920274208564,0.0,0.21592954105719758,0.18161767632334033,0.04742240973465071,1228.5173475582428,22504.588696268813
5.052526263131566,930.4919954107742,929.5362719127788,0.18182691634600956,0.0,0.21596160036637008,0.18158475055697407,0.047421283557565426,1228.4933040406618,22517.24324255434
5.062531265632816,930.5888084942949,929.6363939021998,0.18193413128217178,0.0,0.21599349616054397,0.1815519863352859,0.04742016054164207,1228.469366648195,22529.88688972198
5.072536268134067,930.685345275183,929.7361512144162,0.182040867737017,0.0,0.2160252347266902,0.1815193773727415,0.04741904066894332,1228.4455310169865,22542.519652244395
5.082541270635318,930.7816146164606,929.8355542189705,0.1821471453020237,0.0,0.2160568221660715,0.18148691756940885,0.04741792392230881,1228.4217929117438,22555.141544745857
5.092546273136568,930.8776252006187,929.9346130931001,0.18225298299856646,0.0,0.2160882644019749,0.18145460100322733,0.047416810285342455,1228.3981482203635,22567.752581997633
5.102551275637818,930.9733855336135,930.033337824661,0.18235839930164213,0.0,0.21611956718709127,0.1814224219226296,0.04741569974239989,1228.3745929488018,22580.352778913417
5.11255627813907,931.0689039487711,930.1317382150677,0.18246341216235532,0.0,0.21615073611050964,0.1813903747395487,0.04741459227857624,1228.3511232162127,22592.942150544968
5.12256128064032,931.1641886106165,930.2298238822456,0.1825680390293785,0.0,0.21618177660439322,0.18135845402274367,0.04741348787969397,1228.3277352503108,22605.52071207778
5.13256628314157,931.2592475185571,930.3276042635239,0.18267229686917894,0.0,0.21621269395027162,0.18132665449150825,0.047412386532291365,1228.304425382996,22618.088478826958
5.142571285642822,931.3540885105909,930.4250886186394,0.18277620218557322,0.0,0.21624349328512554,0.18129497100958836,0.04741128822361069,1228.2811900461277,22630.645466233065
5.152576288144072,931.44871926696,930.5222860327688,0.18287977103842354,0.0,0.21627417960720413,0.1812633985793655,0.047410192941586424,1228.2580257674836,22643.19168985812
5.162581290645322,931.543147313678,930.6192054195017,0.18298301906128428,0.0,0.21630475778151675,0.18123193233636675,0.047409100674834045,1228.234929166944,22655.72716538166
5.172586293146573,931.6373800259873,930.7158555238088,0.18308596147826103,0.0,0.21633523254507964,0.18120056754401936,0.04740801141263891,1228.2118969528485,22668.251908596983
5.182591295647824,931.731424631742,930.8122449249969,0.18318861312005752,0.0,0.21636560851191053,0.18116929958865743,0.04740692514494538,1228.1889259185252,22680.765935407406
5.192596298149074,931.8252882147245,930.9083820396552,0.1832909884393152,0.0,0.2163958901778035,0.18113812397474854,0.0474058418623461,1228.1660129389775,22693.269261822647
5.202601300650325,931.9189777178894,931.0042751245841,0.18339310152521907,0.0,0.21642608192487564,0.18110703632034822,0.04740476155607159,1228.143154967725,22705.76190395532
5.212606303151576,932.0124999465426,931.0999322797062,0.18349496611746133,0.0,0.21645618802591454,0.18107603235275385,0.047403684217979886,1228.1203490337844,22718.243878017503
5.222611305652826,932.105861571414,931.1953614509137,0.18359659561947103,0.0,0.2164862126484973,0.18104510790438705,0.04740260984054665,1228.0975922388136,22730.715200317358
5.232616308154077,932.1990691316915,931.290570432917,0.18369800311112755,0.0,0.21651615985894915,0.18101425890883585,0.047401538416855356,1228.0748817543586,22743.17588725594
5.242621310655328,932.2921290380627,931.3855668721606,0.1837992013610575,0.0,0.21654603362617325,0.18098348139702666,0.047400469940587296,1228.0522148192001,22755.625955323907
5.252626313156578,932.3850475756385,931.4803582696445,0.18390020283825811,0.0,0.21657583782527087,0.18095277149360514,0.047399404406012056,1228.0295887368363,22768.065421098443
5.262631315657829,932.4778309068188,931.5749519837207,0.18400101972324387,0.0,0.2166055762410131,0.1809221254134655,0.04739834180797818,1228.0070008730793,22780.494301240222
5.272636318159079,932.5704850740876,931.6693552328529,0.18410166391864247,0.0,0.2166352525711417,0.180891539458451,0.047397282141903994,1227.9844486537593,22792.912612490436
5.28264132066033,932.6630160027537,931.7635750983496,0.18420214705936466,0.0,0.2166648704295374,0.1808610100141868,0.047396225403768664,1227.9619295625305,22805.32037166795
5.292646323161581,932.7554295036323,931.8576185270657,0.18430248052232467,0.0,0.21669443334924854,0.18083053354705253,0.047395171590103445,1227.9394411387682,22817.71759566645
5.302651325662831,932.8477312756736,931.9514923340724,0.1844026754357794,0.0,0.21672394478540088,0.18080010660127332,0.04739412069798302,1227.916980975551,22830.104301451756
5.312656328164082,932.9399269085092,932.0452032052696,0.18450274268815256,0.0,0.21675340811794766,0.1807697257961712,0.047393072725017214,1227.8945467177523,22842.48050605913
5.3226613306653325,933.0320218849295,932.1387576999423,0.18460269293651052,0.0,0.21678282665431103,0.18073938782352447,0.047392027669342855,1227.872136060211,22854.846226590722
5.332666333166583,933.1240215833935,932.2321622533848,0.18470253661485406,0.0,0.21681220363196635,0.18070908944498448,0.04739098552961561,1227.8497467459365,22867.201480212985
5.342671335667834,933.2159312804473,932.3254231794456,0.18480228394196074,0.0,0.2168415422208873,0.18067882748963163,0.047389946305001866,1227.8273765644158,22879.546284154232
5.3526763381690845,933.3077561530785,932.4185466730215,0.18490194492889497,0.0,0.21687084552588687,0.1806485988516355,0.047388909995171015,1227.8050233499894,22891.880655702196
5.362681340670335,933.399501281019,932.5115388125154,0.18500152938619996,0.0,0.21690011658885974,0.18061840048801328,0.04738787660028801,1227.7826849802975,22904.204612201724
5.372686343171585,933.4911716489978,932.6044055622559,0.1851010469307857,0.0,0.21692935839093022,0.18058822941648298,0.047386846121005764,1227.7603593747913,22916.51817105247
5.3826913456728365,933.5827721489462,932.6971527748823,0.18520050699255022,0.0,0.21695857385451686,0.18055808271339974,0.047385818558458054,1227.7380444933017,22928.82134970669
5.392696348174087,933.6743075821506,932.7897861936884,0.18529991882071545,0.0,0.21698776584530854,0.18052795751178052,0.04738479391425236,1227.7157383346705,22941.11416566706
5.402701350675337,933.7657826613599,932.8823114549275,0.18539929148992007,0.0,0.21701693717416487,0.18049785099940485,0.047383772190462956,1227.6934389354335,22953.396636484584
5.412706353176588,933.8572020128081,932.9747340900369,0.18549863390598312,0.0,0.2170460905989138,0.18046776041701798,0.0473827533896243,1227.6711443685751,22965.66877975657
5.422711355677839,933.9485701782563,933.067059527901,0.18559795481156716,0.0,0.2170752288261187,0.18043768305656468,0.04738173751472437,1227.648852742304,22977.930613124576
5.432716358179089,934.0398916169878,933.1592930970746,0.18569726279161758,0.0,0.21710435451277527,0.1804076162594934,0.04738072456919796,1227.6265621988778,22990.182154272505
5.44272136068034,934.1311707077342,933.2514400279388,0.18579656627851696,0.0,0.21713347026791982,0.1803775574151484,0.047379714556920395,1227.6042709134904,23002.423420924646
5.452726363181591,934.2224117505635,933.343505454824,0.18589587355708298,0.0,0.21716257865418934,0.18034750395921129,0.04737870748220131,1227.5819770931903,23014.654430843882
5.462731365682841,934.31361896872,933.4354944180895,0.1859951927693121,0.0,0.21719168218930143,0.18031745337222096,0.0473777033497786,1227.5596789758567,23026.875201829876
5.4727363681840915,934.4047965104273,933.527411866171,0.18609453191899336,0.0,0.21722078334749484,0.18028740317813458,0.0473767021648125,1227.5373748292013,23039.085751717303
5.482741370685343,934.4959484506525,933.6192626575888,0.186193898876124,0.0,0.21724988456090744,0.18025735094295017,0.04737570393287983,1227.5150629498157,23051.286098374167
5.492746373186593,934.587078792822,933.7110515629172,0.18629330138113123,0.0,0.2172789882208945,0.1802272942733889,0.0473747086599683,1227.4927416622586,23063.476259700117
5.5027513756878434,934.6781914704864,933.8027832666912,0.1863927470489317,0.0,0.21730809667929582,0.18019723081562905,0.047373716352471146,1227.470409318177,23075.656253624886
5.512756378189095,934.7692903489611,933.8944623693048,0.18649224337285253,0.0,0.21733721224966016,0.18016715825408203,0.047372727017181794,1227.4480642954618,23087.826098106674
5.522761380690345,934.860379226965,933.9860933889078,0.18659179772846105,0.0,0.217366337208441,0.1801370743101974,0.04737174066128838,1227.4257049974185,23099.98581113062
5.532766383191595,934.9514618381909,934.0776807632346,0.1866914173771891,0.0,0.21739547379612895,0.1801069767413313,0.04737075729236863,1227.4033298519835,23112.135410707328
5.542771385692847,935.0425418528456,934.1692288513988,0.1867911094698692,0.0,0.21742462421835565,0.1800768633396431,0.047369776918384815,1227.3809373109623,23124.274914871403
5.552776388194097,935.1336228791458,934.2607419356472,0.1868908810500688,0.0,0.21745379064693565,0.18004673193105422,0.04736879954767887,1227.3585258493065,23136.40434168003
5.562781390695347,935.2247084647881,934.3522242230841,0.18699073905735358,0.0,0.21748297522088578,0.1800165803742295,0.04736782518896762,1227.336093964411,23148.523709211637
5.572786393196598,935.3158020983788,934.4436798473592,0.187090690330401,0.0,0.2175121800473977,0.17998640655960507,0.04736685385133804,1227.3136401754396,23160.633035564522
5.582791395697849,935.4069072108366,934.5351128703231,0.18719074161002683,0.0,0.2175414072027837,0.17995620840844354,0.047365885544242814,1227.2911630226715,23172.732338855592
5.592796398199099,935.4980271767487,934.6265272836342,0.18729089954205771,0.0,0.21757065873337425,0.17992598387193662,0.047364920277495844,1227.2686610668816,23184.82163721907
5.60280140070035,935.5891653156908,934.7179270103289,0.18739117068010977,0.0,0.21759993665638605,0.17989573093033792,0.047363958061268085,1227.2461328887396,23196.900948805276
5.612806403201601,935.6803248935614,934.8093159064103,0.1874915614883313,0.0,0.21762924296077968,0.17986544759210601,0.04736299890608312,1227.223577088216,23208.970291779464
5.622811405702851,935.7715091238586,934.9006977623781,0.1875920783439965,0.0,0.21765857960806986,0.17983513189309427,0.04736204282281303,1227.2009922840239,23221.029684320594
5.632816408204102,935.8627211689281,934.9920763047221,0.18769272754002655,0.0,0.21768794853311393,0.17980478189576352,0.04736108982267427,1227.178377113073,23233.07914462024
5.642821410705353,935.9539641411804,935.0834551973841,0.18779351528739832,0.0,0.21771735164486455,0.17977439568842948,0.04736013991722386,1227.1557302299507,23245.118690881493
5.652826413206603,936.0452411042797,935.1748380431902,0.18789444771748742,0.0,0.2177467908271024,0.17974397138453072,0.047359193118355465,1227.1330503064135,23257.148341317876
5.662831415707854,936.1365550743061,935.2662283852526,0.1879955308843197,0.0,0.21777626793914004,0.17971350712192535,0.047358249438295676,1227.110336030903,23269.16811415232
5.672836418209104,936.2279090208873,935.3576297083403,0.1880967707667273,0.0,0.21780578481649607,0.17968300106221735,0.047357308889600346,1227.0875861080779,23281.178027616133
5.682841420710355,936.3193058683064,935.4490454402188,0.18819817327046348,0.0,0.2178353432715565,0.17965245139009556,0.04735637148515112,1227.0647992583592,23293.178099948054
5.692846423211606,936.4107484965618,935.5404789529399,0.18829974423017426,0.0,0.2178649450941912,0.1796218563127179,0.047355437238152026,1227.0419742175025,23305.168349393254
5.702851425712856,936.5022397424442,935.6319335641504,0.18840148941140655,0.0,0.21789459205238193,0.17959121405908351,0.04735450616212602,1227.0191097361662,23317.148794202447
5.712856428214107,936.5937824005747,935.7234125383598,0.1885034145124931,0.0,0.21792428589281237,0.17956052287944368,0.04735357827091161,1226.9962045795019,23329.119452630952
5.722861430715358,936.6853792244133,935.8149190881725,0.18860552516637666,0.0,0.2179540283414382,0.17952978104473172,0.047352653578659705,1226.9732575267615,23341.080342937847
5.732866433216608,936.7770329272435,935.906456375493,0.18870782694237953,0.0,0.21798382110404096,0.1794989868460097,0.04735173209983035,1226.9502673709158,23353.03148338509
5.742871435717859,936.8687461831362,935.9980275127056,0.18881032534792438,0.0,0.21801366586676646,0.1794681385939306,0.04735081384918983,1226.927232918281,23364.972892236725
5.7528764382191095,936.960521627884,936.0896355638247,0.18891302583014966,0.0,0.2180435642966299,0.17943723461823344,0.04734989884180754,1226.904152988172,23376.90458775803
5.76288144072036,937.0523618599187,936.1812835456229,0.18901593377751244,0.0,0.2180735180420177,0.17940627326724173,0.04734898709305326,1226.8810264125523,23388.826588214793
5.77288644322161,937.1442694412075,936.2729744287337,0.18911905452133765,0.0,0.2181035287331721,0.17937525290737968,0.04734807861859415,1226.8578520357044,23400.73891187251
5.7828914457228615,937.236246898114,936.3647111387139,0.18922239333729526,0.0,0.21813359798265322,0.17934417192271,0.04734717343439224,1226.8346287139063,23412.641576995662
5.792896448224112,937.3282967222514,936.4564965570992,0.1893259554468128,0.0,0.21816372738578138,0.17931302871449234,0.04734627155670171,1226.811355315129,23424.534601847005
5.802901450725362,937.4204213713299,936.5483335224535,0.18942974601850746,0.0,0.21819391852108508,0.17928182170073537,0.047345373002066135,1226.7880307187263,23436.418004686853
5.8129064532266135,937.5126232699741,936.6402248313789,0.18953377016955428,0.0,0.21822417295072946,0.17925054931576898,0.04734447778731596,1226.7646538151384,23448.29180377245
5.822911455727864,937.6049048105154,936.7321732395,0.1896380329669802,0.0,0.21825449222092108,0.1792192100098395,0.04734358592956603,1226.7412235056147,23460.15601735725
5.832916458229114,937.6972683537632,936.8241814624259,0.1897425394288998,0.0,0.21828487786229506,0.17918780224872327,0.047342697446213146,1226.717738701944,23472.010663690344
5.8429214607303654,937.7897162297683,936.9162521766943,0.1898472945257785,0.0,0.21831533139031015,0.1791563245133314,0.04734181235493377,1226.6941983261836,23483.855761015802
5.852926463231616,937.8822507385597,937.0083880206926,0.18995230318160808,0.0,0.2183458543056169,0.1791247752993425,0.04734093067368168,1226.6706013104047,23495.69132757208
5.862931465732866,937.9748741508666,937.1005915955556,0.1900575702750463,0.0,0.21837644809441437,0.17909315311684565,0.04734005242068579,1226.6469465964465,23507.517381591464
5.8729364682341165,938.0675887088174,937.1928654660389,0.19016310064053768,0.0,0.2184071142288009,0.17906145648999042,0.04733917761444799,1226.6232331356732,23519.33394129948
5.882941470735368,938.16039662662,937.2852121613691,0.19026889906935768,0.0,0.21843785416710107,0.1790296839566599,0.04733830627374118,1226.5994598887503,23531.14102491435
5.892946473236618,938.2533000912475,937.3776341761015,0.19037497031069442,0.0,0.21846866935420436,0.17899783406813247,0.047337438417607014,1226.5756258254087,23542.938650646458
5.9029514757378685,938.346301263099,937.4701339709451,0.19048131907267654,0.0,0.21849956122188705,0.17896590538876006,0.04733657406535392,1226.551729924224,23554.72683669786
5.91295647823912,938.4394022766361,937.5627139735631,0.19058795002333948,0.0,0.21853053118911456,0.1789338964956661,0.047335713236555166,1226.5277711724082,23566.505601261753
5.92296148074037,938.5326052410097,937.6553765793568,0.1906948677915821,0.0,0.21856158066234135,0.17890180597844585,0.047334855951046945,1226.5037485656014,23578.274962522024
5.9329664832416205,938.6259122406722,937.7481241522343,0.1908020769681036,0.0,0.21859271103580402,0.17886963243887374,0.04733400222892651,1226.4796611076708,23590.034938652738
5.942971485742872,938.719325335973,937.8409590253574,0.19090958210630146,0.0,0.21862392369180245,0.17883737449062215,0.04733315209055043,1226.4555078105166,23601.785547817744
5.952976488244122,938.8128465637379,937.9338835018732,0.19101738772312019,0.0,0.2186552200009657,0.1788050307589959,0.0473323055565328,1226.4312876938884,23613.526808170172
5.962981490745372,938.9064779378396,938.0268998556268,0.19112549829992803,0.0,0.2186866013225264,0.1787725998806581,0.04733146264774359,1226.4069997851952,23625.25873785204
5.972986493246623,939.0002214497409,938.1200103318481,0.19123391828330943,0.0,0.21871806900456886,0.17874008050338216,0.0473306233853071,1226.3826431193352,23636.981354993844
5.982991495747874,939.0940790690479,938.2132171478465,0.1913426520858827,0.0,0.21874962438428514,0.17870747128579612,0.04732978779060025,1226.3582167385186,23648.694677714135
5.992996498249124,939.1880527440416,938.3065224936827,0.1914517040870767,0.0,0.2187812687882183,0.1786747708971392,0.047328955885250955,1226.3337196921002,23660.398724119128
6.003001500750375,939.2821444021957,938.3999285328192,0.19156107863389618,0.0,0.21881300353250205,0.17864197801702286,0.04732812769113661,1226.309151036414,23672.093512302377
6.013006503251626,939.3763559506814,938.4934374027584,0.1916707800416506,0.0,0.21884482992308904,0.1786090913352023,0.047327303230382665,1226.2845098346156,23683.77906034435
6.023011505752876,939.4706892768596,938.5870512156638,0.1917808125946673,0.0,0.21887674925597397,0.17857610955135367,0.0473264825253611,1226.2597951565276,23695.455386312107
6.033016508254127,939.5651462487624,938.6807720589665,0.19189118054698479,0.0,0.21890876281741098,0.17854303137485697,0.04732566559868903,1226.235006078491,23707.122508258984
6.043021510755377,939.6597287155656,938.7746019959623,0.19200188812304858,0.0,0.21894087188413117,0.17850985552457835,0.047324852473227444,1226.2101416832145,23718.78044422421
6.053026513256628,939.7544385080441,938.868543066387,0.19211293951833666,0.0,0.21897307772353866,0.17847658072867464,0.04732404317207978,1226.1852010596383,23730.42921223262
6.063031515757879,939.8492774390153,938.9625972869769,0.19222433890001978,0.0,0.21900538159391725,0.17844320572438657,0.047323237718590754,1226.1601833027933,23742.068830294353
6.073036518259129,939.9442473037799,939.0567666520254,0.19233609040756855,0.0,0.21903778474462024,0.17840972925784904,0.04732243613634513,1226.1350875136684,23753.699316404527
6.08304152076038,940.039349880556,939.1510531339316,0.192448198153383,0.0,0.21907028841626794,0.17837615008389407,0.04732163844916636,1226.1099127990751,23765.320688542964
6.093046523261631,940.1345869308972,939.2454586837292,0.1925606662233807,0.0,0.2191028938409316,0.17834246696586661,0.04732084468111544,1226.08465827152,23776.932964673928
6.103051525762881,940.2299602001018,939.3399852316037,0.1926734986775858,0.0,0.2191356022423178,0.1783086786754406,0.04732005485648975,1226.0593230490795,23788.536162745848
6.113056528264132,940.325471417611,939.4346346873956,0.19278669955067654,0.0,0.21916841483594005,0.17827478399244734,0.04731926899982187,1226.0339062552785,23800.13030069105
6.123061530765383,940.421122297399,939.5294089410946,0.19290027285254813,0.0,0.21920133282929471,0.17824078170469984,0.0473184871358786,1226.00840701897,23811.715396425523
6.133066533266633,940.5169145383535,939.6243098633203,0.19301422256883596,0.0,0.21923435742202482,0.17820667060782877,0.04731770928965982,1225.9828244742237,23823.29146784866
6.143071535767883,940.6128498246499,939.7193393057944,0.19312855266146003,0.0,0.21926748980609062,0.17817244950511238,0.0473169354863975,1225.9571577602062,23834.85853284305
6.153076538269135,940.7089298261094,939.8144991017947,0.19324326706911346,0.0,0.21930073116592244,0.1781381172073238,0.04731616575155475,1225.9314060210766,23846.416609274223
6.163081540770385,940.8051561985537,939.9097910666026,0.19335836970777,0.0,0.2193340826785789,0.1781036725325723,0.04731540011082486,1225.905568405875,23857.96571499044
6.173086543271635,940.9015305841598,940.0052169979512,0.19347386447118028,0.0,0.21936754551390317,0.178069114306148,0.047314638590130284,1225.8796440684196,23869.505867822514
6.1830915457728866,940.998054611798,940.1007786764548,0.19358975523134297,0.0,0.21940112083466967,0.17803444136037452,0.04731388121562173,1225.853632167199,23881.037085583568
6.193096548274137,941.0947298973657,940.1964778660283,0.19370604583897597,0.0,0.2194348097967319,0.17799965253446162,0.04731312801367723,1225.8275318652757,23892.559386068886
6.203101550775387,941.191558044113,940.2923163142988,0.19382274012398668,0.0,0.21946861354916955,0.17796474667435835,0.04731237901090124,1225.8013423301807,23904.072787055688
6.2131065532766385,941.2885406429592,940.3882957530052,0.1939398418959063,0.0,0.21950253323442395,0.17792972263261697,0.04731163423412386,1225.7750627338223,23915.577306302985
6.223111555777889,941.3856792728036,940.4844178983911,0.19405735494433213,0.0,0.21953656998843707,0.17789457926825486,0.04731089371039999,1225.7486922523885,23927.072961551396
6.233116558279139,941.4829755008291,940.5806844515871,0.19417528303935375,0.0,0.21957072494078414,0.17785931544662123,0.04731015746700847,1225.7222300662568,23938.55977052297
6.24312156078039,941.5804308827962,940.677097098983,0.19429362993196844,0.0,0.21960499921480414,0.17782393003926744,0.04730942553145145,1225.6956753599025,23950.03775092105
6.253126563281641,941.6780469633328,940.7736575125898,0.19441239935449842,0.0,0.21963939392772966,0.17778842192381641,0.04730869793145359,1225.6690273218092,23961.5069204301
6.263131565782891,941.7758252762202,940.870367350404,0.19453159502099032,0.0,0.2196739101908122,0.17775278998383798,0.04730797469496131,1225.6422851443835,23972.967296715557
6.273136568284142,941.8737673446761,940.9672282567599,0.19465122062762852,0.0,0.21970854910945142,0.17771703310871945,0.04730725585014207,1225.615448023865,23984.41889742373
6.283141570785393,941.9718746816245,941.0642418626713,0.19477127985311674,0.0,0.2197433117833143,0.17768115019354652,0.047306541425383535,1225.588515160243,23995.86174018163
6.293146573286643,942.0701487899603,941.1614097861661,0.19489177635904434,0.0,0.21977819930644962,0.1776451401389887,0.04730583144929306,1225.5614857571784,24007.29584259686
6.3031515757878935,942.1685911628141,941.2587336326143,0.19501271379029214,0.0,0.21981321276741503,0.1776090018511726,0.047305125950696934,1225.5343590219159,24018.7212222575
6.313156578289145,942.267203283804,941.3562149950478,0.19513409577537463,0.0,0.2198483532493837,0.17757273424157508,0.04730442495863976,1225.5071341652088,24030.137896731972
6.323161580790395,942.3659866272862,941.4538554544744,0.1952559259268149,0.0,0.2198836218302617,0.17753633622690596,0.047303728502383825,1225.47981040124,24041.54588356895
6.3331665832916455,942.4649426586013,941.5516565801832,0.19537820784150448,0.0,0.2199190195828002,0.17749980672899582,0.04730303661140853,1225.452386947542,24052.945200297243
6.343171585792896,942.564072834308,941.6496199300401,0.19550094510104338,0.0,0.2199545475747017,0.1774631446746898,0.04730234931540983,1225.4248630249256,24064.335864425695
6.353176588294147,942.6633786024182,941.7477470507828,0.19562414127206587,0.0,0.21999020686872184,0.17742634899574583,0.04730166664429967,1225.3972378574074,24075.71789344309
6.3631815907953975,942.7628614026344,941.8460394783141,0.19574779990662658,0.0,0.22002599852279006,0.177389418628714,0.047300988628205316,1225.3695106721282,24087.091304818045
6.373186593296648,942.8625226665708,941.9444987379809,0.19587192454250532,0.0,0.2200619235901047,0.1773523525148414,0.047300315297468885,1225.3416806992857,24098.456115998983
6.383191595797899,942.9623638179743,942.043126344848,0.19599651870353377,0.0,0.2200979831192352,0.17731514959997022,0.04729964668264667,1225.3137471720638,24109.812344413996
6.393196598299149,943.0623862729435,942.1419238039713,0.19612158589995005,0.0,0.2201341781542324,0.17727780883442681,0.047298982814508735,1225.2857093265577,24121.160007470793
6.4032016008004,943.1625914401358,942.2408926106569,0.19624712962867227,0.0,0.2201705097347144,0.17724032917293656,0.04729832372403842,1225.2575664017124,24132.49912255663
6.413206603301651,943.2629807209792,942.3400342507225,0.19637315337365396,0.0,0.22020697889597715,0.17720270957451295,0.047297669442431745,1225.229317639248,24143.829707038247
6.423211605802901,943.3635555098748,942.4393502007483,0.19649966060617904,0.0,0.22024358666908672,0.17716494900236524,0.04729702000109697,1225.2009622835942,24155.15177826177
6.433216608304152,943.4643171943941,942.538841928323,0.19662665478516675,0.0,0.22028033408097414,0.17712704642380372,0.047296375431654276,1225.172499581825,24166.465353552718
6.443221610805402,943.5652671554731,942.6385108922843,0.1967541393574619,0.0,0.22031722215452598,0.177089000810149,0.047295735765935196,1225.1439287835967,24177.770450215878
6.453226613306653,943.6664067676107,942.7383585429619,0.19688211775816078,0.0,0.2203542519086864,0.17705081113663027,0.04729510103598215,1225.115249141076,24189.067085535287
6.463231615807904,943.7677373990537,942.838386322409,0.19701059341088184,0.0,0.22039142435854112,0.17701247638230086,0.04729447127404798,1225.0864599088823,24200.355276774197
6.473236618309154,943.8692604119864,942.9385956646324,0.1971395697280945,0.0,0.22042874051542036,0.17697399552993562,0.047293846512595536,1225.0575603440168,24211.635041175014
6.483241620810405,943.9709771627065,943.0389879958129,0.19726905011135726,0.0,0.2204662013869728,0.17693536756595685,0.047293226784297225,1225.0285497058103,24222.906395959275
6.493246623311656,944.0728890018086,943.139564734528,0.1973990379516493,0.0,0.22050380797726915,0.17689659148033063,0.04729261212203463,1224.9994272558517,24234.16935832762
6.503251625812906,944.1749972743553,943.2403272919631,0.19752953662962008,0.0,0.22054156128687996,0.17685766626648913,0.0472920025588981,1224.9701922579345,24245.423945459715
6.513256628314157,944.2773033200518,943.3412770721246,0.19766054951588563,0.0,0.22057946231296774,0.17681859092123825,0.04729139812818632,1224.9408439779922,24256.67017451428
6.523261630815408,944.3798084734112,943.4424154720435,0.19779207997129197,0.0,0.2206175120493693,0.17677936444467549,0.04729079886340604,1224.911381684041,24267.90806262903
6.533266633316658,944.482514063924,943.5437438819783,0.19792413134721143,0.0,0.22065571148668775,0.17673998584009767,0.04729020479827171,1224.8818046461172,24279.13762692065
6.543271635817908,944.5854214162168,943.6452636856139,0.19805670698577554,0.0,0.2206940616123654,0.17670045411392823,0.04728961596670499,1224.8521121362244,24290.358884484784
6.55327663831916,944.6885318502161,943.7469762602586,0.1981898102201677,0.0,0.22073256341077482,0.1766607682756259,0.047289032402834455,1224.8223034282719,24301.57185239603
6.56328164082041,944.7918466813077,943.8488829770358,0.1983234443748948,0.0,0.2207712178633034,0.17662092733760035,0.04728845414099514,1224.7923777980166,24312.776547707927
6.57328664332166,944.8953672204883,943.9509852010715,0.19845761276603888,0.0,0.22081002594843188,0.1765809303151333,0.04728788121572826,1224.7623345230058,24323.972987452926
6.583291645822912,944.999094774519,944.0532842916771,0.19859231870151237,0.0,0.22084898864181376,0.17654077622629938,0.04728731366178082,1224.732172882525,24335.161188642425
6.593296648324162,945.103030646077,944.155781602533,0.19872756548134168,0.0,0.22088810691636357,0.17650046409187756,0.04728675151410529,1224.7018921575345,24346.34116826672
6.603301650825412,945.2071761338966,944.2584784818624,0.19886335639787472,0.0,0.22092738174232163,0.1764599929352866,0.04728619480785927,1224.6714916306255,24357.512943295034
6.613306653326664,945.3115325329212,944.3613762726086,0.19899969473608134,0.0,0.22096681408734734,0.17641936178249143,0.04728564357840518,1224.6409705859546,24368.6765306755
6.623311655827914,945.4161011344406,944.4644763126031,0.1991365837737857,0.0,0.2210064049165915,0.17637856966193086,0.04728509786131,1224.6103283091934,24379.831947335184
6.633316658329164,945.5208832262343,944.5677799347361,0.199274026781917,0.0,0.22104615519277446,0.17633761560443942,0.04728455769234493,1224.5795640874746,24390.979210180056
6.643321660830415,945.6258800927073,944.6712884671216,0.19941202702474295,0.0,0.22108606587625887,0.1762964986431746,0.04728402310748495,1224.5486772093418,24402.118336095045
6.653326663331666,945.7310930150301,944.7750032332614,0.19955058776014084,0.0,0.2211261379251339,0.1762552178135324,0.04728349414290859,1224.51766696469,24413.249341944036
6.663331665832916,945.8365232712705,944.8789255522046,0.19968971223982843,0.0,0.22116637229528713,0.17621377215307543,0.047282970834997544,1224.486532644716,24424.372244569873
6.673336668334167,945.942172136528,944.9830567387049,0.19982940370961572,0.0,0.22120676994048294,0.1761721607014546,0.04728245322033642,1224.4552735418636,24435.487060794403
6.683341670835418,946.0480408830593,945.0873981033737,0.19996966540962072,0.0,0.22124733181242964,0.1761303825003417,0.0472819413357124,1224.4238889497776,24446.59380741847
6.693346673336668,946.1541307804114,945.1919509528332,0.20011050057453433,0.0,0.22128805886086172,0.17608843659334716,0.04728143521811494,1224.392378163246,24457.69250122196
6.703351675837919,946.260443095544,945.2967165898651,0.2002519124338399,0.0,0.22132895203360842,0.1760463220259516,0.04728093490473548,1224.3607404781521,24468.783158963804
6.71335667833917,946.3669790929555,945.4016963135563,0.2003939042120488,0.0,0.22137001227666642,0.17600403784543261,0.04728044043296721,1224.3289751914244,24479.865797382015
6.72336168084042,946.4737400348067,945.5068914194445,0.20053647912894823,0.0,0.2214112405342774,0.17596158310078747,0.047279951840404774,1224.297081600982,24490.940433193704
6.7333666833416705,946.5807271810411,945.6123031996623,0.20067964039981992,0.0,0.2214526377489959,0.17591895684266512,0.04727946916484391,1224.2650590056874,24502.007083095126
6.743371685842921,946.6879417895024,945.7179329430743,0.2008233912356562,0.0,0.22149420486175647,0.17587615812329888,0.0472789924442811,1224.2329067053006,24513.065763761708
6.753376688344172,946.7953851160587,945.8237819354197,0.20096773484342806,0.0,0.2215359428119572,0.17583318599642286,0.047278521716913345,1224.2006240004202,24524.116491848094
6.7633816908454225,946.9030584147124,945.9298514594439,0.20111267442627664,0.0,0.2215778525375191,0.1757900395172126,0.0472780570211378,1224.1682101924418,24535.15928398817
6.773386693346673,947.0109629377174,946.0361427950351,0.201258213183747,0.0,0.22161993497495874,0.17574671774221196,0.04727759839555152,1224.135664583508,24546.194156795118
6.783391695847924,947.1190999356934,946.1426572193543,0.20140435431202303,0.0,0.22166219105946142,0.1757032197292604,0.04727714587895118,1224.1029864764575,24557.221126861452
6.7933966983491745,947.2274706577365,946.2493960069662,0.20155110100414006,0.0,0.22170462172494718,0.17565954453742644,0.047276699510332726,1224.0701751747777,24568.24021075904
6.803401700850425,947.3360763515283,946.3563604299663,0.20169845645020087,0.0,0.22174722790413784,0.1756156912269407,0.04727625932889116,1224.0372299825597,24579.251425039172
6.813406703351676,947.4449182634479,946.4635517581066,0.2018464238376108,0.0,0.22179001052863004,0.1755716588591228,0.047275825374020294,1224.0041502044473,24590.254786232596
6.8234117058529264,947.5539976386773,946.5709712589212,0.2019950063512816,0.0,0.22183297052895865,0.17552744649631752,0.04727539768531235,1223.9709351455901,24601.25031084957
6.833416708354177,947.6633157213091,946.6786201978481,0.20214420717385162,0.0,0.22187610883466533,0.17548305320182664,0.047274976302557656,1223.9375841116005,24612.23801537991
6.843421710855427,947.7728737544509,946.7864998383508,0.2022940294858968,0.0,0.221919426374364,0.17543847803984297,0.047274561265744336,1223.904096408503,24623.217916293044
