z,T,t,fs,fl,x,y,w,rhob,p
0.0,634.1323431805566,505.0,0.0,0.0,0.1622061045087398,0.23560220178629018,0.047712125357156236,1268.0,14330.0
0.010005002501250625,642.4865838939628,517.821938303304,2.6962628875005663e-05,0.0,0.16221446919479407,0.2355938371000529,0.04771212535686687,1267.994169600973,14339.157499069903
0.02001000500250125,650.5332110665078,530.1531990514341,5.794105870877334e-05,0.0,0.16222407971288155,0.23558422658155462,0.04771212535621715,1267.9874708249495,14348.497520137229
0.030015007503751877,658.2862590996632,542.01758148213,9.311343637153715e-05,0.0,0.1622349913296551,0.23557331496391742,0.0477121253548515,1267.9798651492538,14358.01374784568
0.0400200100050025,665.7589214098916,553.4373354294105,0.00013263204745629916,0.0,0.16224725128851888,0.23556105500334154,0.047712125352144086,1267.9713196433065,14367.700056483596
0.05002501250625312,672.9636162755392,564.4332949779713,0.00017662461984235608,0.0,0.16226089921390405,0.23554740707473432,0.047712125347048794,1267.9618066866567,14377.550505993915
0.060030015007503754,679.9120462923089,575.0249976325156,0.00022519586615430654,0.0,0.16227596758961071,0.23553233869323947,0.04771212533789554,1267.9513036353294,14387.559337760447
0.07003501750875438,686.6152521664143,585.2307908830282,0.0002784291618961068,0.0,0.1622924822791868,0.23551582399369075,0.04771212532212509,1267.9397924588009,14397.720970237933
0.080040020010005,693.0836614806367,595.0679277634582,0.00033638828123569437,0.0,0.16231046306413277,0.23549784319219713,0.04771212529595708,1267.9272593644698,14408.02999448047
0.09004502251125562,699.3271329878423,604.5526527662895,0.00039911913296646035,0.0,0.16232992418210074,0.23547838204768978,0.047712125253988505,1267.9136944220522,14418.481169612465
0.10005002501250625,705.3549969170721,613.7002792797491,0.0004666514555643075,0.0,0.16235087485234342,0.23545743133617625,0.04771212518872406,1267.8990911967862,14429.069418277682
0.11005502751375687,711.1760917174643,622.52525955063,0.0005390004430903149,0.0,0.16237331977965297,0.23543498634646404,0.04771212509004238,1267.883446397551,14439.7898220951
0.12006003001500751,716.7987976135788,631.0412480380152,0.0006161682835623456,0.0,0.16239725963109616,0.23541104640305277,0.04771212494460679,1267.8667595438887,14450.637617144554
0.13006503251625812,722.2310673009455,639.2611589069841,0.000698145598890208,0.0,0.16242269148217245,0.23538561441957537,0.04771212473523168,1267.8490326542837,14461.60818950054
0.14007003501750875,727.4804540718814,647.1972183128713,0.0007849127810239344,0.0,0.16244960923074778,0.23535869648444477,0.047712124440218745,1267.8302699568683,14472.697070828646
0.15007503751875936,732.5541376279205,654.8610120428488,0.0008764412230131388,0.0,0.16247800397837403,0.23533030147910552,0.04771212403267919,1267.8104776228492,14483.899934056057
0.16008004002001,737.4589478058605,662.2635290100527,0.0009726944465545822,0.0,0.16250786437949938,0.2353004407283974,0.0477121234798595,1267.789663522314,14495.212589124918
0.17008504252126064,742.2013864188449,669.4152010341611,0.0010736291295876,0.0,0.162539176959689,0.23526912768192168,0.047712122742488636,1267.7678370016667,14506.63097883526
0.18009004502251125,746.7876473915343,676.3259392896368,0.001179196038800147,0.0,0.1625719264043809,0.23523637762489735,0.047712121774164486,1267.7450086816466,14518.151174782437
0.19009504752376188,751.2236353488295,683.0051677574074,0.0012893408727028366,0.0,0.1626060958199468,0.23520220741674777,0.047712120520796514,1267.721190274713,14529.769373392595
0.2001000500250125,755.5149828004253,689.4618539764521,0.0014040050213478096,0.0,0.1626416669689564,0.2351666352555293,0.04771211892011985,1267.6963944205006,14541.481892058504
0.21010505252626313,759.6670660483667,695.7045373576868,0.0015231262489165036,0.0,0.16267862048158818,0.23512968046626676,0.04771211690129438,1267.6706345379946,14553.285165377134
0.22011005502751374,763.6850199314705,701.741355292898,0.0016466393053541945,0.0,0.1627169360451129,0.23509136331127717,0.04771211438459978,1267.6439246931027,14565.17574148958
0.23011505752876438,767.5737515087324,707.5800672656267,0.0017744764730494278,0.0,0.16275659257331773,0.23505170482061896,0.04771211128123514,1267.6162794803336,14577.150278523235
0.24012006003001501,771.3379527734654,713.2280771483229,0.0019065680542880881,0.0,0.16279756835765447,0.23501072664088674,0.04771210749322893,1267.5877139173383,14589.205541135669
0.25012506253126565,774.9821124807194,718.6924538502932,0.0020428428048884333,0.0,0.16283984120179068,0.23496845090067492,0.047712102913462416,1267.558243351154,14601.338397159201
0.26013006503251623,778.510527162384,723.9799504635853,0.002183228319069504,0.0,0.1628833885411327,0.23492490009114167,0.04771209742580711,1267.5278833750576,14613.545814344787
0.27013506753376687,781.9273113971307,729.0970220386585,0.0023276513702388535,0.0,0.16292818754877167,0.23488009696022077,0.04771209090537403,1267.496649755008,14625.824857203683
0.2801400700350175,785.2364073959025,734.0498421081934,0.002476038212019089,0.0,0.16297421522918848,0.23483406441914184,0.04771208321887069,1267.4645583647489,14638.172683944964
0.29014507253626814,788.4415939579151,738.8443180654773,0.0026283148434752784,0.0,0.1630214485009426,0.23478682546003177,0.04771207422505926,1267.4316251287087,14650.586543507
0.3001500750375187,791.5464948470009,743.4861054932358,0.0027844072421624793,0.0,0.16306986426945855,0.2347384030834764,0.04771206377530778,1267.3978659719073,14663.063772680724
0.31015507753876936,794.5545866335384,747.9806215294182,0.0029442415682884794,0.0,0.16311943949092525,0.23468882023502302,0.047712051714225025,1267.3632967761582,14675.601793322488
0.32016008004002,797.4692060430966,752.3330573481185,0.003107744342983147,0.0,0.16317015122822598,0.23463809974969746,0.04771203788036812,1267.3279333419057,14688.198109654315
0.33016508254127064,800.2935568492466,756.5483898263942,0.003274842603383825,0.0,0.16322197669972963,0.2345862643036994,0.047712022107011344,1267.291791355113,14700.850305649117
0.3401700850425213,803.0307163446694,760.6313924611392,0.0034454640369858468,0.0,0.16327489332169232,0.2345333363725177,0.047712004222964365,1267.254886358659,14713.556042498709
0.35017508754377186,805.6836414217208,764.5866455942482,0.003619537097468267,0.0,0.16332887874494442,0.23447933819478445,0.047711984053427164,1267.2172337277618,14726.313056162156
0.3601800900450225,808.2551742909219,768.4185459990355,0.0037969911039863837,0.0,0.16338391088646953,0.23442429174125215,0.04771196142086993,1267.1788486489897,14739.119154992233
0.37018509254627313,810.7480478634297,772.1313158761103,0.00397775632572353,0.0,0.16343996795642157,0.2343682186883409,0.047711936145925574,1267.1397461024683,14751.972217437635
0.38019009504752377,813.1648908213535,775.7290113026775,0.004161764053313771,0.0,0.16349702848106973,0.2343111403957591,0.04771190804828374,1267.0999408469272,14764.870189818717
0.39019509754877435,815.5082323977999,779.215530175386,0.004348946658583234,0.0,0.16355507132211053,0.23425307788775038,0.04771187694757536,1267.059447407267,14777.811084174482
0.400200100050025,817.7805068867476,782.594619683414,0.004539237643909518,0.0,0.16361407569274228,0.23419405183756659,0.047711842664238044,1267.0182800643595,14790.792976178644
0.4102051025512756,819.9840579012189,785.8698833453619,0.004732571682364816,0.0,0.16367402117085464,0.23413408255480755,0.04771180502035316,1266.9764528468284,14803.814003122616
0.42021010505252626,822.1211423967447,789.0447876407275,0.0049288846496876836,0.0,0.16373488770965158,0.2340731899753045,0.04771176384044694,1266.9339795245749,14816.87236196331
0.4302151075537769,824.1939344757785,792.1226682641881,0.005128113649019638,0.0,0.1637966556459914,0.2340113936532597,0.047711718952248544,1266.890873603845,14829.966307433684
0.4402201100550275,826.2045289874932,795.1067360286239,0.005330197029245034,0.0,0.16385930570669913,0.23394871275538245,0.04771167018739954,1266.8471483236524,14843.094150214047
0.4502251125562781,828.15494493628,798.0000824407284,0.00553507439768473,0.0,0.16392281901308042,0.2338851660567903,0.047711617382110195,1266.8028166533948,14856.254255162183
0.46023011505752875,830.0471287112605,800.8056849711561,0.005742686627814994,0.0,0.16398717708384178,0.23382077193846784,0.047711560377759,1266.7578912915133,14869.445039600349
0.4702351175587794,831.882957148187,803.5264120394411,0.0059529758626123185,0.0,0.16405236183660163,0.23375554838609744,0.04771149902143296,1266.7123846650652,14882.664971657363
0.48024012006003003,833.664240434268,806.1650277323481,0.006165885514061039,0.0,0.1641183555881572,0.23368951299009558,0.04771143316640735,1266.6663089300969,14895.912568663949
0.4902451225612806,835.3927248656724,808.7241962728941,0.006381360259303625,0.0,0.16418514105365595,0.23362268294670605,0.04771136267256401,1266.6196759727004,14909.186395599629
0.5002501250625313,837.0700954667597,811.2064862559691,0.006599346033862302,0.0,0.16425270134480455,0.23355507506001696,0.047711287406748806,1266.5724974106813,14922.485063589453
0.5102551275637819,838.6979784794321,813.6143746652959,0.006819790022314702,0.0,0.16432101996723505,0.2334867057447826,0.0477112072430689,1266.5247845957338,14935.807228448972
0.5202601300650325,840.2779437304018,815.9502506853842,0.007042640646765219,0.0,0.1643900808171356,0.23341759102994367,0.047711122063131724,1266.4765486160677,14949.151589275834
0.5302651325662832,841.8115068836225,818.2164193211269,0.007267847553416687,0.0,0.16445986817724265,0.23334774656275076,0.04771103175622754,1266.4278002994097,14962.516887086524
0.5402701350675337,843.3001315846243,820.4151048367775,0.007495361597514099,0.0,0.16453036671228022,0.23327718761340657,0.04771093621945853,1266.378550216334,14975.901903496686
0.5502751375687843,844.7452315030272,822.5484540252113,0.00772513482690245,0.0,0.1646015614639254,0.23320592908015003,0.04771083535781701,1266.3288086838559,14989.305459443722
0.560280140070035,846.1481722790797,824.6185393175922,0.007957120464414177,0.0,0.16467343784536836,0.23313398549471567,0.04771072908421645,1266.2785857692604,15002.726413950142
0.5702851425712856,847.5102733796754,826.627361742869,0.008191272889278007,0.0,0.16474598163553045,0.23306137102810742,0.04771061731947829,1266.2278912941158,15016.163662926423
0.5802901450725363,848.8328098689278,828.576853745864,0.008427547617719727,0.0,0.16481917897299608,0.232988099496633,0.0477104999922787,1266.1767348384367,15029.616138012067
0.5902951475737869,850.1170140980603,830.4688818721224,0.008665901282906242,0.0,0.1648930163497087,0.23291418436815067,0.047710377039058297,1266.1251257449721,15043.082805453556
0.6003001500750375,851.36407731904,832.3052493271277,0.008906291614367332,0.0,0.1649674806044757,0.2328396387684871,0.047710248403899105,1266.0730731235906,15056.562665018078
0.6103051525762881,852.5751512261107,834.0876984169907,0.00914867741701418,0.0,0.16504255891632208,0.23276447548798646,0.04771011403837192,1266.020585855729,15070.054748941748
0.6203101550775387,853.7513494291034,835.8179128772315,0.009393018549859983,0.0,0.1651182387977297,0.23268870698815874,0.04770997390135782,1265.9676725989002,15083.55812091131
0.6303151575787894,854.8937488621605,837.4975200958507,0.009639275904535876,0.0,0.16519450808779274,0.2326123454083974,0.04770982795884726,1265.9143417912242,15097.071875078143
0.64032016008004,856.0033911312788,839.1280932364742,0.009887411383684238,0.0,0.16527135494531853,0.23253540257273894,0.047709676183719914,1265.8606016559843,15110.595135103555
0.6503251625812906,857.0812838038644,840.711153266984,0.010137387879301765,0.0,0.16534876784189895,0.23245788999664238,0.047709518555508416,1265.8064602061768,15124.127053234308
0.6603301650825413,858.1284016432948,842.2481708987053,0.010389169251095837,0.0,0.16542673555497403,0.2323798188937679,0.04770935506014897,1265.7519252490556,15137.666809407461
0.6703351675837919,859.1456877912995,843.7405684408915,0.010642720304910881,0.0,0.1655052471609089,0.23230120018273573,0.04770918568972149,1265.6970043906547,15151.213610383507
0.6803401700850426,860.1340549010009,845.189721575239,0.010898006772871897,0.0,0.1655842920285955,0.2322220444933547,0.04770901044218173,1265.6417050399355,15164.766688906899
0.6903451725862931,861.0943864762104,846.5969614139997,0.011154997339903718,0.0,0.16566386044790526,0.232142361537997,0.047708829321087824,1265.5860339704209,15178.32530289389
0.7003501750875437,862.0276510056543,847.963736664,0.011414578349018075,0.0,0.1657442274017527,0.23206187633927008,0.04770864233518199,1265.5297995240953,15191.888735252787
0.7103551775887944,862.9349743643666,849.2917155215,0.011679180768933171,0.0,0.1658261470712373,0.23197983472365782,0.04770844949646654,1265.47247603487,15205.456300016656
0.720360180090045,863.816766836254,850.5815475540024,0.011945668248583452,0.0,0.16590864647174314,0.23189720968676536,0.047708250822329434,1265.4147417168435,15219.027331012558
0.7303651825912957,864.6737807307445,851.8343663065995,0.01221382251486675,0.0,0.16599165790959095,0.23181406893683246,0.04770804633580597,1265.356643782035,15232.601179212592
0.7403701850925463,865.5067672498003,853.0513012569363,0.012483614386740973,0.0,0.16607517235755473,0.23173042151832818,0.04770783606417363,1265.298188555526,15246.177216978434
0.7503751875937968,866.3164538695057,854.2334457864326,0.012755015773077477,0.0,0.16615918112999822,0.2316462761366308,0.04770762003866128,1265.2393821288842,15259.754837480392
0.7603801900950475,867.1035451163664,855.3818583887657,0.013027999342360989,0.0,0.16624367578017069,0.23156164126056464,0.047707398294184744,1265.1802304314435,15273.333454047486
0.7703851925962981,867.8687233506439,856.4975638828632,0.013302538503386684,0.0,0.16632864809399048,0.23147652512845307,0.04770717086908832,1265.1207392343345,15286.912499537724
0.7803901950975487,868.6126495194401,857.5815545777617,0.013578607386806564,0.0,0.16641409008409774,0.2313909357539069,0.047706937804893206,1265.0609141543378,15300.491425728167
0.7903951975987994,869.3359638808527,858.6347913915122,0.013856180827020845,0.0,0.166499993984021,0.23130488093150306,0.04770669914605314,1265.000760657665,15314.069702724126
0.80040020010005,870.0392867005044,859.6582049262778,0.014135234344419054,0.0,0.166586352242459,0.2312183682423534,0.04770645493971807,1264.9402840636715,15327.646818386806
0.8104052026013007,870.7232189216869,860.6526965016545,0.01441574412797494,0.0,0.16667315751768,0.2311314050595611,0.04770620523550598,1264.879489548491,15341.222277778948
0.8204102051025512,871.3883428102879,861.6191391481238,0.01469768701819777,0.0,0.16676040267203884,0.23104399855356483,0.04770595008528324,1264.8183821486052,15354.795602627744
0.8304152076038018,872.0352225756131,862.5583785624535,0.01498104049044152,0.0,0.1668480807666132,0.23095615569736924,0.0477056895429538,1264.7569667643347,15368.366330804572
0.8404202101050525,872.6644049681529,863.4712340267557,0.015265782638572204,0.0,0.16693618505595842,0.23086788327166205,0.04770542366425718,1264.695248163261,15381.934015820978
0.8504252126063031,873.2764198552906,864.3584992928267,0.015551892158992688,0.0,0.16702470898298144,0.23077918786981821,0.047705152506575414,1264.6332309835761,15395.498226340425
0.8604302151075538,873.8717807759034,865.2209434333017,0.015839348335023536,0.0,0.1671136461739332,0.23069007590279142,0.04770487612874898,1264.5709197373558,15409.058545705215
0.8704352176088044,874.4509854747453,866.0593116610825,0.01612813102163753,0.0,0.16720299043351847,0.23060055360389306,0.047704594590901594,1264.508318813768,15422.614571478234
0.880440220110055,875.0145164174744,866.8743261184133,0.01641822063054506,0.0,0.16729273574012213,0.23051062703346092,0.047704307954273814,1264.4454324822045,15436.165914998946
0.8904452226113057,875.5628412871282,867.666686636917,0.016709598115626865,0.0,0.16738287624115164,0.23042030208341704,0.04770401628106538,1264.3822648953446,15449.712200953223
0.9004502251125562,876.0964134628223,868.4370714698325,0.017002244958710146,0.0,0.16747340624849252,0.2303295844817176,0.047703719634285935,1264.3188200921504,15463.253066956582
0.9104552276138069,876.6156724814,869.1861379976284,0.017296143155683806,0.0,0.16756432023407747,0.23023847979669512,0.047703418077614225,1264.2551020007893,15476.788163150386
0.9204602301150575,877.1210444827357,869.9145234081183,0.017591275202947926,0.0,0.16765561282556554,0.2301469934412951,0.04770311167526531,1264.191114441493,15490.31715181061
0.9304652326163081,877.6129426393506,870.6228453521373,0.01788762408419257,0.0,0.16774727880213086,0.2300551306772084,0.04770280049186567,1264.1268611293492,15503.839706968769
0.9404702351175588,878.0917675709758,871.311702575793,0.01818517325750067,0.0,0.16783931309035852,0.22996289661890104,0.04770248459233605,1264.062345677023,15517.355514044635
0.9504752376188094,878.557907744663,871.9816755302519,0.018483906642769353,0.0,0.1679317107602459,0.22987029623754374,0.047702164041781465,1263.997571597418,15530.864269490357
0.9604802401200601,879.0117398610183,872.6333269599794,0.01878380860944427,0.0,0.16802446702130713,0.22977733436484207,0.04770183890538856,1263.932542306274,15544.365680445657
0.9704852426213106,879.453629227104,873.267202470301,0.019084863964560984,0.0,0.16811757721877918,0.22968401569677008,0.04770150924832967,1263.8672611246966,15557.859464403678
0.9804902451225612,879.8839301165307,873.8838310751192,0.01938705794108762,0.0,0.16821103682992705,0.22959034479720847,0.0477011751356735,1263.8017312816335,15571.345348887271
0.9904952476238119,880.30298611724,874.4837257255735,0.019690376186562778,0.0,0.16830484146044586,0.22949632610148984,0.04770083663230205,1263.7359559162808,15584.823071135263
1.0005002501250626,880.7111304674497,875.0673838203993,0.01999480475202276,0.0,0.1683989868409587,0.2294019639198524,0.04770049380283366,1263.669938080439,15598.292377798483
1.0105052526263132,881.1086863802169,875.6352876987044,0.020300330081211956,0.0,0.1684934688236067,0.22930726244080468,0.04770014671155173,1263.6036807408057,15611.753024645219
1.0205102551275638,881.4959673570531,876.1879051158493,0.020606939000070518,0.0,0.16858828337873025,0.22921222573440272,0.047699795422338924,1263.5371867812123,15625.204776275772
1.0305152576288144,881.8732774910054,876.7256897030857,0.020914618706493113,0.0,0.168683426591639,0.22911685775544172,0.04769943999861665,1263.4704590048052,15638.647405845877
1.040520260130065,882.2409117595984,877.2490814115763,0.021223356760352845,0.0,0.16877889465946844,0.22902116234656453,0.04769908050328941,1263.4035001361744,15652.080694798691
1.0505252626313157,882.5991563080191,877.7585069413983,0.02153314107378436,0.0,0.16887468388812094,0.2289251432412881,0.04769871699869398,1263.336312823424,15665.504432605063
1.0605302651325663,882.9482887229032,878.2543801560946,0.02184395990172005,0.0,0.16897079068928927,0.22882880406695083,0.047698349546552915,1263.268899640195,15678.918416511844
1.070535267633817,883.288578297073,878.7371024833215,0.022155801832673797,0.0,0.1690672115775608,0.22873214834758157,0.04769797820793242,1263.2012630876338,15692.322451298009
1.0805402701350675,883.6202862855588,879.2070633021151,0.022468655779766054,0.0,0.16916394316759997,0.22863517950669307,0.04769760304320406,1263.1334055963139,15705.716349038286
1.090545272636318,883.9436661532172,879.6646403172708,0.022782510971984846,0.0,0.16926098217140706,0.22853790087000123,0.04769722411201039,1263.0653295281038,15719.099928874142
1.1005502751375686,884.2589638142596,880.1101999213192,0.02309735694567677,0.0,0.16935832539565202,0.22844031566807205,0.047696841473234046,1262.9970371779937,15732.473016791799
1.1105552776388194,884.5664178639743,880.544097544549,0.02341318353626265,0.0,0.16945596973908034,0.2283424270388981,0.04769645518497022,1262.9285307758685,15745.83544540715
1.12056028014007,884.8662598029279,880.966677993519,0.023729980870172133,0.0,0.16955391218998964,0.22824423803040636,0.04769606530450223,1262.8598124882399,15759.187053757318
1.1305652826413206,885.1587142539113,881.3782757784747,0.02404773935699201,0.0,0.16965214982377605,0.22814575160289885,0.04769567188828017,1262.790884419932,15772.527687098634
1.1405702851425712,885.4439991718908,881.7792154300745,0.024366449681822826,0.0,0.16975067980054628,0.22804697063142823,0.04769527499190222,1262.721748615725,15785.85719671089
1.1505752876438218,885.7223260472065,882.1698118058056,0.02468610279783857,0.0,0.16984949936279603,0.22794789790810926,0.047694874670098586,1262.6524070619541,15799.175439707604
1.1605802901450726,885.9939001022614,882.5503703864634,0.025006689919044516,0.0,0.1699486058331517,0.22784853614436895,0.047694470976717925,1262.5828616880685,15812.48227885218
1.1705852926463232,886.2589204819233,882.9211875630449,0.02532820251322789,0.0,0.1700479966121736,0.2277488879731355,0.047694063964715955,1262.5131143681488,15825.777582379718
1.1805902951475737,886.5175804378614,883.2825509143951,0.025650632295096728,0.0,0.17014766917622012,0.22764895595096896,0.04769365368614634,1262.4431669223877,15839.06122382434
1.1905952976488243,886.7700675070265,883.6347394759363,0.02597397121960205,0.0,0.17024762107536975,0.22754874256013416,0.047693240192153326,1262.3730211185273,15852.333081851844
1.200600300150075,887.0165636844766,883.9780239997876,0.02629821147543849,0.0,0.17034784993140042,0.22744825021061807,0.047692823532966534,1262.302678673263,15865.593040097527
1.2106053026513257,887.2572455907424,884.3126672065779,0.02662334547871901,0.0,0.17044835343582465,0.22734748124209256,0.04769240375789712,1262.2321412536098,15878.840987009004
1.2206103051525763,887.4922846339177,884.6389240292403,0.02694936586681896,0.0,0.17054912934797795,0.2272464379258244,0.047691980915335816,1262.1614104782311,15892.076815693898
1.2306153076538269,887.7218471666558,884.9570418490658,0.027276265492385373,0.0,0.17065017549316047,0.22714512246653337,0.04769155505275229,1262.0904879187344,15905.30042377221
1.2406203101550775,887.9460946382436,885.2672607242779,0.027604037417506867,0.0,0.17075148976082918,0.22704353700420044,0.04769112621669592,1262.0193751009326,15918.511713233262
1.250625312656328,888.1651837419183,885.5698136113928,0.0279326749080402,0.0,0.17085307010283995,0.22694168361582717,0.047690694452797805,1261.9480735060715,15931.71059029703
1.2606303151575788,888.3792665575888,885.8649265795999,0.028262171428089233,0.0,0.17095491453173792,0.22683956431714716,0.04769025980577401,1261.8765845720254,15944.8969652798
1.2706353176588294,888.5884906901119,886.1528190184102,0.0285925206346324,0.0,0.17105702111909496,0.22673718106429136,0.04768982231942974,1261.8049096944617,15958.07075246391
1.28064032016008,888.7929994032751,886.433703838793,0.028923716372294687,0.0,0.17115938799389258,0.22663453575540846,0.04768938203666469,1261.733050227974,15971.231869971574
1.2906453226613306,888.9929317496254,886.7077876680212,0.02925575266826037,0.0,0.1712620133409495,0.2265316302322413,0.04768893899947907,1261.6610074871855,15984.380239642544
1.3006503251625812,889.1884226962836,886.9752710384398,0.029588623727322735,0.0,0.17136489539939237,0.22642846628166033,0.047688493248980696,1261.5887827478227,15997.515786915588
1.310655327663832,889.379603246874,887.2363485703543,0.02992232392706721,0.0,0.17146803246116854,0.2263250456371559,0.047688044825392586,1261.516377247763,16010.638440713603
1.3206603301650826,889.5666005596994,887.4912091492403,0.030256847813184277,0.0,0.1715714228695996,0.2262213699802899,0.04768759376806142,1261.4437921880506,16023.748133332274
1.3306653326663331,889.749538062282,887.7400360974584,0.030592190094908902,0.0,0.17167506501797486,0.22611744094210817,0.04768714011546654,1261.3710287338895,16036.844800332183
1.3406703351675837,889.9285355623898,887.9830073406583,0.030928345640582812,0.0,0.17177895734818338,0.22601326010451422,0.04768668390522947,1261.2980880156063,16049.928380434223
1.3506753376688343,890.1037093556621,888.220295569044,0.031265309473336694,0.0,0.1718830983493834,0.22590882900160644,0.04768622517412404,1261.2249711295915,16062.998815418268
1.360680340170085,890.2751723299448,888.4520683936709,0.03160307676688882,0.0,0.1719874865567086,0.2258041491209782,0.047685763958086824,1261.1516791392141,16076.056050024954
1.3706853426713357,890.4430340664401,888.6784884979365,0.031941642841457174,0.0,0.17209212055000983,0.22569922190498343,0.04768530029222809,1261.0782130757075,16089.100031860484
1.3806903451725863,890.607400937775,888.8997137844204,0.03228100315978195,0.0,0.1721969989526312,0.22559404875196698,0.04768483421084299,1261.0045739390414,16102.130711304382
1.3906953476738368,890.7683762030866,889.1158975172236,0.03262115332325551,0.0,0.17230212043021992,0.22548863101746283,0.04768436574742315,1260.9307626987604,16115.148041420112
1.4007003501750874,890.9260601002178,889.3271884599553,0.03296208906815694,0.0,0.17240748368956882,0.22538297001535842,0.047683894934668486,1260.856780294807,16128.151977868412
1.4107053526763382,891.0805499351193,889.5337310095048,0.033303806261988304,0.0,0.17251308747749072,0.22527706701902836,0.047683421804499186,1260.7826276383207,16141.142478823343
1.4207103551775888,891.2319401685421,889.7356653257358,0.03364630089990998,0.0,0.17261893057972313,0.225170923262437,0.047682946388068005,1260.708305612414,16154.119504890912
1.4307153576788394,891.3803225001111,889.9331274572315,0.03398956910127232,0.0,0.17272501181986394,0.2250645399412111,0.04768246871577259,1260.6338150729305,16167.083019030224
1.44072036018009,891.5257859498578,890.12624946322,0.03433360710624123,0.0,0.17283133005833534,0.22495791821368322,0.04768198881726805,1260.5591568491807,16180.032986477034
1.4507253626813406,891.6684169372965,890.315159531797,0.03467841127251478,0.0,0.1729378841913769,0.22485105920190715,0.0476815067214795,1260.4843317446587,16192.96937466971
1.4607303651825914,891.8082993581174,890.4999820945685,0.03502397807212881,0.0,0.17304467315006555,0.22474396399264557,0.047681022456614784,1260.4093405377414,16205.892153177443
1.470735367683842,891.9455146585764,890.6808379378234,0.03537030408834886,0.0,0.17315169589936322,0.22463663363833078,0.04768053605017719,1260.3341839823659,16218.801293630697
1.4807403701850925,892.0801419076461,890.8578443103465,0.035717386012646214,0.0,0.17325895143718967,0.22452906915799958,0.04768004752897822,1260.258862808692,16231.696769653794
1.490745372686343,892.2122578670054,891.0311150279771,0.03606522064175577,0.0,0.17336643879352162,0.2244212715382025,0.0476795569191503,1260.1833777237428,16244.5785567996
1.5007503751875937,892.3419370589319,891.200760575018,0.03641380487481348,0.0,0.17347415702951566,0.22431324173388875,0.047679064246159586,1260.107729412034,16257.446632486222
1.5107553776888443,892.46925183216,891.3668882025901,0.03676313571057133,0.0,0.17358210523665601,0.22420498066926664,0.047678569534818624,1260.0319185361805,16270.300975935652
1.520760380190095,892.5942724257727,891.5296020240323,0.03711321024468762,0.0,0.1736902825359249,0.2240964892386411,0.047678072809299026,1259.955945737491,16283.141568114332
1.5307653826913457,892.7170670311834,891.6890031074339,0.03746402566709056,0.0,0.17379868807699614,0.22398776830722816,0.047677574093144076,1259.8798116365438,16295.968391675531
1.5407703851925962,892.8377018522694,891.8451895653932,0.037815579259413416,0.0,0.1739073210374505,0.22387881871194745,0.04767707340928125,1259.8035168337485,16308.781430903531
1.5507753876938468,892.9562411637132,891.9982566420858,0.03816786839249881,0.0,0.17401618062201255,0.22376964126219318,0.047676570780034615,1259.7270619098942,16321.580671659527
1.5607803901950974,893.0727473676058,892.1482967977275,0.03852089052397085,0.0,0.1741252660618086,0.22366023674058408,0.04767606622713719,1259.6504474266785,16334.366101329202
1.5707853926963482,893.1872810483667,892.2953997905116,0.038874643195872804,0.0,0.17423457661364444,0.2235506059036931,0.04767555977174316,1259.5736739272263,16347.137708771927
1.5807903951975988,893.2999010260331,892.4396527560979,0.03922912403236875,0.0,0.17434411155930354,0.22344074948275744,0.04767505143443995,1259.4967419365946,16359.89548427154
1.5907953976988494,893.4106644079643,892.5811402847315,0.03958433073750765,0.0,0.17445387020486372,0.22333066818436895,0.04767454123526023,1259.419651962261,16372.639419488642
1.6008004002001,893.5196266390143,892.7199444960611,0.03994026109304765,0.0,0.17456385188003287,0.22322036269114595,0.04767402919369367,1259.342404494601,16385.369507414387
1.6108054027013505,893.6268415502153,892.8561451117291,0.04029691295633957,0.0,0.17467405593750265,0.22310983366238707,0.04767351532869877,1259.2650000073522,16398.08574232567
1.6208104052026013,893.7323614060211,892.9898195258022,0.04065428425826756,0.0,0.1747844817523202,0.2229990817347069,0.04767299965871421,1259.1874389580662,16410.788119741766
1.630815407703852,893.8362369501508,893.1210428731073,0.04101237300124552,0.0,0.1748951287212763,0.22288810752265473,0.047672482201670384,1259.1097217885488,16423.476636382253
1.6408204102051025,893.9385174500779,893.2498880955364,0.041371177257267855,0.0,0.17500599626231084,0.22277691161931643,0.04767196297500056,1259.0318489252843,16436.15129012627
1.650825412706353,894.0392507402039,893.3764260063863,0.041730695166012986,0.0,0.17511708381393448,0.22266549459689963,0.047671441995651945,1258.953820779857,16448.81207997304
1.6608304152076037,894.1384832637567,893.5007253527851,0.04209092493299813,0.0,0.17522839083466557,0.2225538570073039,0.04767091928009657,1258.8756377493519,16461.459006003617
1.6708354177088545,894.2362601134548,893.6228528762742,0.042451864827784236,0.0,0.1753399168024831,0.22244199938267434,0.04767039484434209,1258.7973002167498,16474.092069343827
1.680840420210105,894.3326250709684,893.7428733715899,0.04281351318222926,0.0,0.17545166121429404,0.222329922235941,0.04766986870394218,1258.7188085513121,16486.711272128356
1.6908454227113556,894.427620645221,893.8608497437108,0.04317586838878909,0.0,0.1755636235854156,0.2222176260613434,0.04766934087400709,1258.6401631089527,16499.31661746593
1.7008504252126062,894.5212881095621,893.9768430632136,0.04353892889886415,0.0,0.17567580344907113,0.2221051113349406,0.04766881136921372,1258.5613642326018,16511.908109405653
1.7108554277138568,894.6136675378438,894.0909126199956,0.04390269322119101,0.0,0.17578820035590031,0.22199237851510775,0.04766828020381571,1258.4824122525577,16524.485752904293
1.7208604302151076,894.7047978394389,894.2031159754089,0.044267159920277424,0.0,0.1759008138734824,0.2218794280430191,0.047667747391653234,1258.4033074868325,16537.049553794684
1.7308654327163582,894.7947167932274,894.3135090128555,0.044632327614879834,0.0,0.17601364358587218,0.22176626034311775,0.04766721294616275,1258.3240502414862,16549.599518755018
1.7408704352176088,894.8834610805851,894.4221459868911,0.04499819497652202,0.0,0.17612668909314935,0.22165287582357274,0.04766667688038642,1258.2446408109518,16562.135655279202
1.7508754377188593,894.9710663174039,894.5290795708786,0.04536476072805395,0.0,0.17623995001097922,0.22153927487672387,0.04766613920698144,1258.1650794783516,16574.657971648037
1.76088044022011,895.0575670851704,894.6343609032397,0.04573202364224954,0.0,0.1763534259701862,0.2214254578795144,0.047665599938229206,1258.0853665158065,16587.166476901355
1.7708854427213607,895.1429969611345,894.7380396323427,0.04609998254044257,0.0,0.1764671166163382,0.22131142519391173,0.0476650590860442,1258.005502184735,16599.661180811025
1.7808904452226113,895.2273885475931,894.840163960069,0.04646863629119931,0.0,0.17658102160934308,0.22119717716731718,0.047664516661982854,1257.925486736146,16612.14209385478
1.7908954477238619,895.3107735003139,894.9407806840983,0.04683798380902727,0.0,0.17669514062305522,0.22108271413296426,0.04766397267725212,1257.8453204109217,16624.60922719088
1.8009004502251125,895.3931825561285,895.0399352389493,0.047208024053118795,0.0,0.1768094733448936,0.22096803641030627,0.04766342714271789,1257.765003440095,16637.06259263354
1.810905452726363,895.474645559716,895.1376717358145,0.04757875602612875,0.0,0.17692401947546985,0.22085314430539346,0.04766288006891323,1257.6845360451168,16649.502202629188
1.8209104552276139,895.5551914896034,895.2340330012246,0.04795017877298527,0.0,0.1770387787282263,0.22073803811123988,0.04766233146604655,1257.6039184381193,16661.928070233404
1.8309154577288644,895.6348484834047,895.3290606145758,0.048322291379732665,0.0,0.1771537508290843,0.22062271810818038,0.047661781344009425,1257.5231508221693,16674.340209088594
1.840920460230115,895.7136438623223,895.4227949445583,0.04869509297240573,0.0,0.1772689355161017,0.22050718456421764,0.0476612297123844,1257.4422333915172,16686.73863340241
1.8509254627313656,895.7916041549324,895.5152751845117,0.04906858271593448,0.0,0.1773843325391398,0.2203914377353604,0.047660676580452574,1257.3611663318363,16699.123357926794
1.8609304652326162,895.8687551202737,895.6065393867464,0.04944275981307847,0.0,0.17749994165953945,0.22027547786595175,0.047660121957200985,1257.2799498204588,16711.494397937695
1.870935467733867,895.9451217702642,895.6966244958569,0.04981762350339011,0.0,0.17761576264980575,0.22015930518898935,0.04765956585132987,1257.1985840266027,16723.851769215464
1.8809404702351176,896.0207283914607,895.7855663810591,0.050193173062205866,0.0,0.1777317952933014,0.22004291992643613,0.047659008271259774,1257.1170691115954,16736.19548802577
1.8909454727363681,896.095598566186,895.8733998675791,0.050569407799664894,0.0,0.17784803938394847,0.21992632228952327,0.04765844922513849,1257.0354052290877,16748.525571101254
1.9009504752376187,896.1697551930364,895.960158767123,0.050946327059754104,0.0,0.17796449472593806,0.21980951247904465,0.047657888720847835,1256.9535925252665,16760.842035623624
1.9109554777388693,896.2432205067947,896.0458759074536,0.05132393021937921,0.0,0.17808116113344807,0.21969249068564337,0.047657326766010276,1256.8716311390567,16773.144899206418
1.9209604802401201,896.3160160977595,896.1305831611027,0.05170221668746078,0.0,0.1781980384303685,0.21957525709009046,0.047656763367995396,1256.7895212023218,16785.434179878263
1.9309654827413707,896.3881629305132,896.2143114732401,0.052081185904054736,0.0,0.1783151264500342,0.21945781186355617,0.04765619853392624,1256.7072628400579,16797.709896066644
1.9409704852426213,896.4596813621421,896.2970908887294,0.05246083733949679,0.0,0.17843242503496484,0.21934015516787395,0.047655632270685484,1256.6248561705806,16809.97206658226
1.9509754877438719,896.5305911599264,896.3789505783911,0.05284117049356983,0.0,0.17854993403661215,0.21922228715579695,0.04765506458492151,1256.5423013057095,16822.220710603786
1.9609804902451224,896.600911518516,896.4599188644976,0.05322218489469395,0.0,0.17866765331511364,0.21910420797124808,0.04765449548305422,1256.4595983509469,16834.455847663197
1.970985492746373,896.6706610766048,896.5400232455225,0.05360388009913831,0.0,0.17878558273905343,0.2189859177495628,0.04765392497128091,1256.3767474056492,16846.6774976315
1.9809904952476238,896.7398579331212,896.6192904201665,0.05398625569025431,0.0,0.17890372218522912,0.2188674166177258,0.04765335305558179,1256.293748563199,16858.88568070495
1.9909954977488744,896.8085196629488,896.6977463106795,0.054369311277729475,0.0,0.1790220715384254,0.21874870469460098,0.04765277974172553,1256.210601911167,16871.08041739168
2.001000500250125,896.8766633321881,896.7754160855042,0.054753046496861635,0.0,0.1791406306911934,0.2186297820911553,0.047652205035274606,1256.1273075314725,16883.261728498823
2.0110055027513756,896.9443055129768,896.852324181253,0.05513746100785242,0.0,0.17925939954363626,0.2185106489106765,0.04765162894159051,1256.0438655005403,16895.42963511993
2.0210105052526264,897.011462297879,896.9284943240483,0.05552255449512018,0.0,0.17937837800320064,0.21839130524898526,0.047651051465838874,1255.9602758894505,16907.584158622896
2.0310155077538767,897.0781493138579,897.0039495502338,0.05590832666663119,0.0,0.17949756598447322,0.2182717511946411,0.04765047261299446,1255.8765387640856,16919.725320638223
2.0410205102551275,897.1443817358426,897.0787122264844,0.056294777253249065,0.0,0.17961696340898373,0.2181519868291431,0.04764989238784599,1255.7926541852753,16931.853143047654
2.0510255127563783,897.2101742999009,897.1528040693275,0.056681906008101676,0.0,0.17973657020501227,0.21803201222712523,0.047649310795000864,1255.7086222089365,16943.9676479732
2.0610305152576287,897.2755413160345,897.2262461640934,0.05706971270596513,0.0,0.17985638630740253,0.2179118274565461,0.047648727838889876,1255.6244428862053,16956.068857766495
2.0710355177588795,897.3404966805983,897.2990589833119,0.05745819714266446,0.0,0.17997641165737982,0.21779143257887382,0.047648143523771606,1255.5401162635744,16968.15679499849
2.08104052026013,897.4050538883665,897.3712624045729,0.05784735913449033,0.0,0.18009664620237406,0.21767082764926596,0.047647557853736915,1255.4556423830168,16980.23148244951
2.0910455227613807,897.4692260442462,897.4428757278646,0.05823719851763162,0.0,0.18021708989584725,0.21755001271674423,0.04764697083271314,1255.371021282114,16992.29294309961
2.1010505252626315,897.5330258746546,897.5139176924037,0.0586277151476232,0.0,0.18033774269712644,0.21742898782436504,0.04764638246446837,1255.286252994177,17004.34120011921
2.111055527763882,897.5964657385696,897.5844064929754,0.059018908898808564,0.0,0.18045860457123988,0.21730775300938499,0.047645792752615455,1255.201337548363,17016.376276860115
2.1210605302651326,897.659557638259,897.6543597957963,0.05941077966381708,0.0,0.18057967548875903,0.21718630830342203,0.04764520170061598,1255.1162749697937,17028.39819684674
2.131065532766383,897.7223132297053,897.7237947539115,0.05980332735305511,0.0,0.18070095542564374,0.21706465373261252,0.04764460931178423,1255.0310652796647,17040.406983767698
2.141070535267634,897.7847438327286,897.7927280221435,0.06019655189421102,0.0,0.18082244436309214,0.21694278931776365,0.047644015589290795,1254.945708495356,17052.402661467553
2.151075537768884,897.8468604408209,897.8611757716036,0.060590453231773284,0.0,0.1809441422873943,0.21682071507450212,0.047643420536166436,1254.860204630538,17064.385253939003
2.161080540270135,897.9086737306983,897.9291537037776,0.060985031326561794,0.0,0.18106604918979027,0.21669843101341862,0.04764282415530555,1254.7745536952743,17076.354785315147
2.1710855427713858,897.9701940715823,897.9966770642013,0.06138028615527153,0.0,0.18118816506633129,0.21657593714020848,0.047642226449469714,1254.688755696124,17088.31127986212
2.181090545272636,898.0314315342148,898.0637606557336,0.061776217710028586,0.0,0.18131048991774518,0.21645323345580864,0.04764162742129107,1254.6028106362367,17100.254761971923
2.191095547773887,898.0923958996186,898.1304188514433,0.062172825997958175,0.0,0.18143302374930537,0.21633031995653063,0.04764102707327567,1254.5167185154503,17112.18525615551
2.2011005502751373,898.1530966676107,898.1966656071145,0.06257011104076404,0.0,0.18155576657070308,0.21620719663419052,0.04764042540780668,1254.4304793303832,17124.102787036092
2.211105552776388,898.2135430650737,898.2625144733897,0.06296807287431927,0.0,0.18167871839592342,0.2160838634762348,0.04763982242714755,1254.3440930745223,17136.007379342664
2.221110555277639,898.2737440539962,898.3279786075534,0.06336671154826813,0.0,0.1818018792431243,0.21596032046586333,0.04763921813344509,1254.257559738315,17147.89905790372
2.2311155577788893,898.3337083392877,898.39307078497,0.06376602712563818,0.0,0.18192524913451893,0.21583656758214884,0.04763861252873246,1254.1708793092507,17159.777847641242
2.24112056028014,898.3934443763762,898.4578034101867,0.06416601968246335,0.0,0.18204882809626147,0.215712604800153,0.04763800561493203,1254.0840517719457,17171.643773564832
2.2511255627813904,898.4529603785963,898.5221885277076,0.06456668930741648,0.0,0.18217261615833524,0.21558843209104,0.04763739739385834,1253.9970771082244,17183.496860766067
2.2611305652826412,898.512264324372,898.5862378324523,0.06496803610145203,0.0,0.18229661335444491,0.21546404942218642,0.047636787867220705,1253.9099552971975,17195.337134413025
2.271135567783892,898.5713639642054,898.6499626799043,0.06537006017745822,0.0,0.18242081972191038,0.2153394567572886,0.04763617703662605,1253.8226863153388,17207.164619745017
2.2811405702851424,898.6302668274745,898.713374095959,0.06577276165991829,0.0,0.18254523530156422,0.2152146540564671,0.047635564903581465,1253.7352701365603,17218.9793420675
2.291145572786393,898.6889802290493,898.7764827864812,0.06617614068458096,0.0,0.182669860137652,0.21508964127636812,0.04763495146949675,1253.6477067322842,17230.78132674713
2.3011505752876436,898.7475112757318,898.8392991465777,0.06658019739813942,0.0,0.18279469427773423,0.21496441837026273,0.04763433673568694,1253.5599960715142,17242.570599207007
2.3111555777888944,898.8058668725255,898.9018332695941,0.06698493195791906,0.0,0.18291973777259238,0.21483898528814285,0.0476337207033747,1253.4721381209044,17254.34718492211
2.321160580290145,898.8640537287437,898.9640949558438,0.0673903445315731,0.0,0.18304499067613597,0.21471334197681521,0.04763310337369272,1253.3841328448261,17266.111109414847
2.3311655827913955,898.9220783639613,899.0260937210736,0.0677964352967866,0.0,0.18317045304531307,0.21458748837999275,0.047632484747685964,1253.295980205433,17277.862398250767
2.3411705852926463,898.9799471138151,899.0878388046772,0.06820320444098807,0.0,0.1832961249400227,0.21446142443838323,0.04763186482631396,1253.2076801627252,17289.60107703445
2.3511755877938967,899.0376661356638,899.1493391776589,0.06861065216106858,0.0,0.1834220064230297,0.214335150089776,0.04763124361045292,1253.1192326746097,17301.327171405504
2.3611805902951475,899.0952414141085,899.2106035503568,0.06901877866310835,0.0,0.1835480975598817,0.21420866526912627,0.04763062110089796,1253.0306376969647,17313.040707034765
2.3711855927963983,899.1526787663848,899.2716403799309,0.06942758416211046,0.0,0.1836743984188283,0.21408196990863723,0.04762999729836506,1252.9418951836922,17324.741709620543
2.3811905952976486,899.2099838476308,899.3324578776197,0.06983706888174135,0.0,0.1838009090707426,0.21395506393783992,0.04762937220349315,1252.8530050867812,17336.430204885084
2.3911955977988995,899.267162156038,899.393064015776,0.0702472330540781,0.0,0.18392762958904418,0.21382794728367124,0.04762874581684605,1252.7639673563585,17348.106218571138
2.40120060030015,899.3242190378929,899.4534665346804,0.07065807691936227,0.0,0.1840545600496247,0.21370061987054992,0.04762811813891436,1252.6747819407478,17359.769776438636
2.4112056028014006,899.3811596925142,899.5136729491446,0.07106960072576003,0.0,0.184181700530775,0.21357308162045013,0.04762748917011741,1252.5854487865174,17371.420904261515
2.4212106053026514,899.4379891770951,899.5736905549029,0.07148180472912831,0.0,0.1843090511131142,0.21344533245297415,0.04762685891080491,1252.495967838536,17383.05962782465
2.431215607803902,899.4947124114559,899.6335264348003,0.07189468919278687,0.0,0.18443661187952046,0.2133173722854219,0.04762622736125893,1252.4063390400208,17394.685972920903
2.4412206103051526,899.5513341827158,899.6931874647811,0.07230825438729638,0.0,0.18456438291506383,0.2131892010328601,0.047625594521695444,1252.3165623325876,17406.29996534831
2.451225612806403,899.6078591498905,899.7526803196796,0.07272250059024163,0.0,0.18469236430694033,0.21306081860818848,0.04762496039226609,1252.2266376562968,17417.901630907363
2.4612306153076537,899.6642918484243,899.8120114788189,0.0731374280860204,0.0,0.18482055614440795,0.2129322249222053,0.04762432497305979,1252.1365649497022,17429.49099539838
2.4712356178089045,899.7206366946648,899.8711872314196,0.07355303716563744,0.0,0.18494895851872412,0.21280341988367063,0.04762368826410436,1252.0463441498948,17441.068084619066
2.481240620310155,899.7768979902887,899.9302136818214,0.07396932812650324,0.0,0.1850775715230848,0.21267440339936847,0.04762305026536807,1251.9559751925485,17452.632924362057
2.4912456228114057,899.833079926688,899.9890967545224,0.07438630127223803,0.0,0.18520639525256485,0.2125451753741672,0.04762241097676113,1251.8654580119612,17464.185540412698
2.501250625312656,899.8891865893268,900.0478421990339,0.07480395691248001,0.0,0.18533542980405976,0.21241573571107852,0.0476217703981372,1251.7747925410997,17475.725958546824
2.511255627813907,899.945221962077,900.1064555945576,0.07522229536269835,0.0,0.18546467527622923,0.21228608431131543,0.047621128529294815,1251.6839787116392,17487.254204528712
2.5212606303151577,900.0011899315452,900.1649423544832,0.07564131694401009,0.0,0.18559413176944137,0.21215622107434837,0.04762048536997883,1251.593016454004,17498.770304109083
2.531265632816408,900.0570942914028,900.2233077307087,0.07606102198300164,0.0,0.18572379938571856,0.2120261458979604,0.04761984091988178,1251.5019056974072,17510.274283023264
2.541270635317659,900.1129387467281,900.2815568177848,0.07648141081155373,0.0,0.18585367822868448,0.21189585867830107,0.047619195178645185,1251.4106463698886,17521.766166989368
2.551275637818909,900.1687269183769,900.3396945568827,0.07690248376667037,0.0,0.18598376840351202,0.21176535930993937,0.04761854814586095,1251.3192383983537,17533.24598170667
2.56128064032016,900.2244623473943,900.3977257395849,0.07732424119031132,0.0,0.18611407001687266,0.21163464768591506,0.047617899821072625,1251.227681708609,17544.713752854
2.571285642821411,900.2801484994802,900.4556550114996,0.07774668342922775,0.0,0.1862445831768863,0.21150372369778964,0.0476172502037766,1251.1359762253999,17556.16950608828
2.581290645322661,900.3357887695286,900.5134868756965,0.07816981083480126,0.0,0.1863753079930728,0.21137258723569577,0.04761659929342346,1251.044121872444,17567.613267043173
2.591295647823912,900.3913864862529,900.5712256959632,0.07859362376288583,0.0,0.18650624457630366,0.2112412381883861,0.0476159470894191,1250.9521185724695,17579.04506132778
2.6013006503251623,900.446944916921,900.6288756998781,0.07901812257365247,0.0,0.1866373930387551,0.21110967644328113,0.04761529359112597,1250.859966247245,17590.46491452548
2.611305652826413,900.502467272214,900.6864409816999,0.07944330763143649,0.0,0.18676875349386154,0.2109779018865163,0.04761463879786421,1250.7676648176164,17601.872852192908
2.621310655327664,900.5579567112354,900.7439255050674,0.07986917930458705,0.0,0.18690032605627022,0.21084591440298844,0.047613982708912844,1250.6752142035389,17613.26889985893
2.6313156578289143,900.6134163466913,900.8013331055075,0.08029573796531889,0.0,0.1870321108417959,0.2107137138764014,0.04761332532351088,1250.5826143241104,17624.65308302385
2.641320660330165,900.6688492502656,900.8586674927451,0.08072298398956608,0.0,0.18716410796737665,0.21058130018931115,0.04761266664085844,1250.4898650976024,17636.02542715865
2.6513256628314155,900.7242584582211,900.9159322528116,0.08115091775683712,0.0,0.18729631755102968,0.21044867322317054,0.04761200666011786,1250.396966441493,17647.385957704384
2.6613306653326663,900.7796469772528,900.9731308499438,0.08157953965007175,0.0,0.1874287397118082,0.21031583285837335,0.04761134538041479,1250.3039182724985,17658.734700071658
2.671335667833917,900.8350177906256,901.0302666282661,0.0820088500554987,0.0,0.187561374569758,0.2101827789742983,0.04761068280083929,1250.2107205066043,17670.071679640263
2.6813406703351674,900.8903738646341,901.0873428132518,0.0824388493624944,0.0,0.18769422224587456,0.21004951144935233,0.04761001892044688,1250.1173730590954,17681.39692175894
2.6913456728364182,900.9457181554187,901.1443625129508,0.08286953796344236,0.0,0.18782728286206052,0.20991603016101434,0.047609353738259634,1250.0238758445896,17692.710451745246
2.7013506753376686,901.0010536161811,901.2013287189781,0.0833009162535926,0.0,0.18796055654108282,0.20978233498587823,0.047608687253267244,1249.930228777066,17704.012294885582
2.7113556778389194,901.0563832048425,901.2582443072507,0.0837329846309213,0.0,0.1880940434065303,0.2096484257996964,0.04760801946442811,1249.8364317698977,17715.302476435394
2.72136068034017,901.1117098921942,901.3151120384664,0.0841657434959898,0.0,0.18822774358277075,0.20951430247742298,0.04760735037067037,1249.7424847358816,17726.581021619484
2.7313656828414206,901.1670366705919,901.3719345583087,0.0845991932518032,0.0,0.18836165719490808,0.20937996489325772,0.04760667997089302,1249.6483875872705,17737.847955632507
2.7413706853426714,901.2223665632499,901.4287143973714,0.08503333430366762,0.0,0.1884957843687389,0.20924541292068985,0.047606008263966985,1249.5541402358042,17749.103303639684
2.7513756878439217,901.277702634199,901.4854539707893,0.08546816705904595,0.0,0.1886301252307087,0.2091106464325425,0.04760533524873623,1249.4597425927418,17760.347090777625
2.7613806903451725,901.3330479989725,901.5421555775624,0.08590369192741193,0.0,0.18876467990786774,0.20897566530101797,0.047604660924018875,1249.3651945688923,17771.579342155423
2.7713856928464233,901.3884058360927,901.5988213995658,0.08633990932010169,0.0,0.1888994485278259,0.20884046939774317,0.047603985288608305,1249.2704960746491,17782.800082855916
2.7813906953476737,901.4437793994387,901.655453500233,0.08677681965016248,0.0,0.18903443121870653,0.20870505859381652,0.047603308341274374,1249.1756470200226,17794.00933793722
2.7913956978489245,901.4991720315741,901.7120538229011,0.08721442333219852,0.0,0.18916962810909999,0.20856943275985546,0.04760263008076455,1249.0806473146745,17805.207132434465
2.801400700350175,901.5545871781317,901.7686241888174,0.08765272078221244,0.0,0.18930503932801537,0.20843359176604526,0.04760195050580513,1248.985496867952,17816.39349136182
2.8114057028514257,901.6100284033458,901.8251662947932,0.08809171241744329,0.0,0.1894406650048312,0.20829753548218913,0.047601269615102554,1248.8901955889244,17827.568439714814
2.8214107053526765,901.6654994068432,901.8816817105115,0.08853139865619916,0.0,0.1895765052692449,0.20816126377775968,0.04760058740734459,1248.7947433864192,17838.732002472923
2.831415707853927,901.7210040417984,901.9381718754861,0.08897177991768479,0.0,0.18971256025122013,0.20802477652195223,0.047599903881201736,1248.6991401690614,17849.88420460253
2.8414207103551776,901.7765463345778,901.9946380956846,0.08941285662182356,0.0,0.189848830080933,0.20788807358373967,0.04759921903532858,1248.6033858453104,17861.02507106023
2.851425712856428,901.8321305059953,902.05108153983,0.08985462918907296,0.0,0.18998531488871598,0.20775115483192944,0.047598532868365226,1248.507480323504,17872.15462679648
2.861430715357679,901.8877609943164,902.1075032354063,0.09029709804023342,0.0,0.1901220148049997,0.20761402013522237,0.047597845378938776,1248.411423511897,17883.27289675974
2.8714357178589296,901.9434424801503,902.1639040644114,0.09074026359625001,0.0,0.1902589299602531,0.207476669362274,0.04759715656566487,1248.315215318708,17894.37990590097
2.88144072036018,901.9991799133815,902.220284758904,0.09118412627800647,0.0,0.1903960604849205,0.2073391023817581,0.04759646642714931,1248.2188556521623,17905.47567917871
2.8914457228614308,902.0549785422905,902.2766458964194,0.09162868650611156,0.0,0.190533406509357,0.20720131906243247,0.04759577496198969,1248.1223444205411,17916.560241564588
2.901450725362681,902.1108439450298,902.3329878953517,0.092073944700677,0.0,0.19067096816376103,0.20706331927320756,0.04759508216877716,1248.025681532229,17927.633618049444
2.911455727863932,902.166782063614,902.3893110104153,0.09251990128108775,0.0,0.1908087455781045,0.2069251028832174,0.047594388046098196,1247.9288668957659,17938.695833650047
2.9214607303651827,902.2227992405934,902.4456153283492,0.09296655666576396,0.0,0.1909467388820607,0.20678666976189283,0.0475936925925365,1247.8319004198977,17949.74691341649
2.931465732866433,902.278902258576,902.5019007640485,0.09341391127191545,0.0,0.1910849482049296,0.2066480197790374,0.047592995806674886,1247.7347820136324,17960.786882440207
2.941470735367684,902.3350983827601,902.5581670573686,0.09386196551528933,0.0,0.19122337367556128,0.20650915280490542,0.047592297687097246,1247.6375115862947,17971.815765862862
2.9514757378689342,902.391395406639,902.614413770889,0.09431071980991164,0.0,0.19136201542227757,0.2063700687102813,0.04759159823239065,1247.5400890475833,17982.833588885947
2.961480740370185,902.4478017010164,902.6706402889981,0.09476017456782454,0.0,0.19150087357279216,0.20623076736656087,0.04759089744114729,1247.4425143076282,17993.840376781303
2.971485742871436,902.504326266468,902.726845818725,0.09521033019882132,0.0,0.19163994825413014,0.20609124864583314,0.047590195311966677,1247.3447872770505,18004.83615490256
2.981490745372686,902.5609787893536,902.7830293928329,0.0956611871101816,0.0,0.1917792395925477,0.20595151242096205,0.047589491843457586,1247.2469078670194,18015.820948697547
2.991495747873937,902.6177697014531,902.8391898757833,0.09611274570641055,0.0,0.19191874771345266,0.20581155856566682,0.047588787034240174,1247.1488759893105,18026.794783721783
3.0015007503751874,902.6747102432669,902.895325973286,0.09656500638898627,0.0,0.19205847274132826,0.20567138695460002,0.04758808088294788,1247.050691556361,18037.757685653043
3.011505752876438,902.7318125309623,902.9514362462714,0.09701796955612124,0.0,0.1921984147996601,0.20553099746342113,0.047587373388229305,1246.9523544813237,18048.70968030717
3.0215107553776885,902.789089626889,903.007519130249,0.0974716356025444,0.0,0.1923385740108703,0.20539038996886394,0.04758666454874981,1246.853864678112,18059.65079365505
3.0315157578789393,902.846555613515,903.063572961159,0.0979260049193124,0.0,0.1924789504962599,0.20524956434879457,0.04758595436319298,1246.755222061445,18070.581051840974
3.04152076038019,902.9042256705312,903.1195960089684,0.09838107789366012,0.0,0.19261954437596365,0.20510852048225794,0.047585242830261686,1246.656426546878,18081.50048120224
3.0515257628814405,902.9621161547777,903.1755865204123,0.09883685490890226,0.0,0.19276035576891976,0.2049672582495079,0.047584529948678636,1246.5574780508257,18092.40910829031
3.0615307653826913,903.0202446825097,903.231542772432,0.09929333634440055,0.0,0.19290138479285976,0.20482577753201767,0.04758381571718659,1246.4583764905676,18103.306959893263
3.0715357678839417,903.0786302133785,903.2874631379976,0.09975052257561258,0.0,0.19304263156432336,0.2046840782124646,0.04758310013454766,1246.3591217842386,18114.194063059826
3.0815407703851925,903.1372931353437,903.3433461661168,0.10020841397424227,0.0,0.19318409619870358,0.20454216017468388,0.047582383199541854,1246.2597138507952,18125.07044512486
3.0915457728864433,903.1962553495405,903.3991906779212,0.10066701090851275,0.0,0.19332577881032958,0.20440002330358456,0.047581664910964584,1246.1601526099548,18135.936133736323
3.1015507753876936,903.2555403539338,903.4549958807548,0.1011263137435876,0.0,0.1934676795125939,0.2042576674850195,0.04758094526762292,1246.0604379821032,18146.791156883726
3.1115557778889444,903.3151733243742,903.5107615021601,0.1015863228421673,0.0,0.19360979841813322,0.20411509260560143,0.047580224268330334,1245.9605698881614,18157.635542927987
3.121560780390195,903.375181191443,903.5664879455372,0.10204703856529175,0.0,0.19375213563907143,0.20397229855245566,0.04757950191189972,1245.8605482494106,18168.46932063264
3.1315657828914456,903.4355927112478,903.6221764690317,0.10250846127338184,0.0,0.19389469128733525,0.20382928521289856,0.04757877819713443,1245.7603729872596,18179.292519196297
3.1415707853926964,903.4964385281008,903.6778293888347,0.10297059132755554,0.0,0.19403746547505293,0.2036860524740318,0.047578053122816925,1245.6600440229554,18190.105168286183
3.1515757878939468,903.5577512268015,903.7334503075731,0.10343342909125536,0.0,0.19418045831504735,0.2035426002222403,0.04757732668769489,1245.559561277223,18200.90729807258
3.1615807903951976,903.6195653720598,903.7890443677691,0.10389697493222474,0.0,0.19432366992143527,0.20339892834258255,0.047576598890464304,1245.458924669829,18211.698939264003
3.171585792896448,903.6819175324493,903.8446185294687,0.10436122922487094,0.0,0.1944671004103432,0.20325503671806175,0.04757586972974932,1245.3581341190602,18222.4801231427
3.1815907953976987,903.7448462861929,903.9001818700624,0.10482619235304978,0.0,0.1946107499007516,0.20311092522876684,0.047575139204078506,1245.257189541107,18233.25088160032
3.1915957978989495,903.8083922060645,903.9557459030626,0.10529186471330446,0.0,0.19475461851547643,0.2029665937508731,0.0475744073118573,1245.156090849349,18244.011247173235
3.2016008004002,903.872597820777,904.0113249111782,0.10575824671858507,0.0,0.1948987063822968,0.20282204215549504,0.04757367405133641,1245.054837953533,18254.761253077188
3.2116058029014507,903.9375075503988,904.0669362874927,0.10622533880246789,0.0,0.19504301363523374,0.20267727030738455,0.047572939420575805,1244.9534307588415,18265.500933240735
3.221610805402701,904.0031676136551,904.1226008769686,0.10669314142388327,0.0,0.19518754041598332,0.20253227806347238,0.047572203417404625,1244.851869164847,18276.230322337033
3.231615807903952,904.0696259054048,904.1783433089541,0.10716165507234936,0.0,0.19533228687550314,0.20238706527125352,0.04757146603937653,1244.7501530643563,18286.949455813403
3.2416208104052027,904.136931843148,904.2341923099801,0.10763088027369323,0.0,0.19547725317574674,0.20224163176702215,0.04757072728372102,1244.6482823421472,18297.65836991809
3.251625812906453,904.2051361821223,904.2901809850123,0.10810081759622558,0.0,0.19562243949153496,0.20209597737396653,0.04756998714729074,1244.5462568736043,18308.357101723686
3.261630815407704,904.2742907993513,904.3463470546108,0.1085714676573159,0.0,0.1957678460125491,0.20195010190014076,0.04756924562650534,1244.4440765232662,18319.045689146627
3.271635817908954,904.3444484479143,904.4027330352628,0.10904283113029696,0.0,0.1959134729454238,0.20180400513633423,0.04756850271729239,1244.3417411432986,18329.724170962196
3.281640820410205,904.4156624836604,904.4593863506007,0.10951490875160817,0.0,0.19605932051591207,0.20165768685386795,0.047567758415026085,1244.2392505719185,18340.392586814563
3.291645822911456,904.4879865675654,904.5163593623714,0.1099877013280689,0.0,0.19620538897108986,0.2015111468023505,0.04756701271446465,1244.1366046317858,18351.050977221377
3.301650825412706,904.5614743478616,904.5737093119018,0.11046120974415743,0.0,0.19635167858156177,0.20136438470743215,0.04756626560968746,1244.0338031283936,18361.699383572482
3.311655827913957,904.6361791269281,904.6314981653836,0.11093543496915795,0.0,0.19649818964362717,0.20121740026859994,0.04756551709403292,1243.9308458484918,18372.33784812259
3.3216608304152073,904.7121535186354,904.6897923594739,0.11141037806402866,0.0,0.19664492248136098,0.2010701931570586,0.04756476716003839,1243.827732558565,18382.96641397754
3.331665832916458,904.7894491023669,904.7486624473277,0.11188604018784078,0.0,0.1967918774485644,0.20092276301374384,0.04756401579938334,1243.7244630034122,18393.585125074253
3.341670835417709,904.868116080254,904.8081826490271,0.11236242260363828,0.0,0.19693905493053981,0.20077510944751448,0.047563263002836864,1243.6210369048495,18404.194026154244
3.3516758379189593,904.9482029442098,904.8684303142288,0.1128395266835767,0.0,0.19708645534564626,0.20062723203356717,0.04756250876021093,1243.5174539605725,18414.793162731
3.36168084042021,905.0297561591648,904.9294853084334,0.11331735391321027,0.0,0.197234079146597,0.20047913031211342,0.04756175306032009,1243.4137138432093,18425.382581051435
3.3716858429214605,905.1128198684609,904.9914293373846,0.11379590589481467,0.0,0.19738192682146363,0.20033080378735488,0.047560995890948775,1243.3098161995817,18435.962328051817
3.3816908454227113,905.1974356267012,905.0543452265002,0.11427518434965483,0.0,0.19752999889436032,0.20018225192678363,0.047560237238826894,1243.2057606502026,18446.532451308714
3.391695847923962,905.2836421644988,905.1183161737888,0.11475519111913066,0.0,0.19767829592578673,0.20003347416082906,0.04755947708961409,1243.1015467890202,18457.092998985518
3.4017008504252124,905.3714751885884,905.1834249953421,0.11523592816476126,0.0,0.1978268185126189,0.19988446988286307,0.04755871542789297,1242.9971741834156,18467.644019775194
3.4117058529264632,905.4609672196918,905.249753382196,0.11571739756699466,0.0,0.19797556728774263,0.19973523844956811,0.0475579522371716,1242.8926423744647,18478.185562839986
3.4217108554277136,905.5521474694315,905.3173811862068,0.11619960152285565,0.0,0.19812454291933426,0.19958577918166337,0.04755718749989459,1242.787950877449,18488.717677748813
3.4317158579289644,905.6450417565203,905.3863857507012,0.11668254234246957,0.0,0.1982737461097998,0.19943609136497825,0.047556421197463034,1242.6830991826223,18499.240414413078
3.441720860430215,905.7396724614579,905.4568412992155,0.11716622244451945,0.0,0.19842317759438968,0.1992861742518551,0.047555653310262104,1242.578086756205,18509.753823021656
3.4517258629314655,905.83605851808,905.5288183928164,0.11765064435071235,0.0,0.19857283813951218,0.19913602706285818,0.047554883817696125,1242.4729130416017,18520.257953975764
3.4617308654327164,905.9342154395654,905.6023834634897,0.11813581067934267,0.0,0.19872272854077191,0.19898564898876073,0.047554112698229935,1242.3675774608157,18530.7528578243
3.4717358679339667,906.034155375914,905.6775984280955,0.11862172413804885,0.0,0.19887284962076307,0.19883503919278223,0.04755333992943582,1242.2620794160398,18541.2385852004
3.4817408704352175,906.1358871994801,905.7545203845408,0.11910838751586457,0.0,0.1990232022266469,0.1986841968130428,0.047552565488044964,1242.1564182914049,18551.71518675963
3.4917458729364683,906.2394166148779,905.8332013892696,0.11959580367466445,0.0,0.1991737872275449,0.19853312096520528,0.047551789350002586,1242.0505934548594,18562.18271312032
3.5017508754377187,906.3447462894472,905.9136883129856,0.12008397554010092,0.0,0.1993246055117756,0.19838181074527458,0.0475510114905256,1241.94460426016,18572.641214806536
3.5117558779389695,906.4518760004709,905.9960227697459,0.12057290609212216,0.0,0.19947565798396377,0.19823026523252663,0.04755023188416216,1241.8384500489565,18583.090742193806
3.52176088044022,906.5608027954485,906.0802411132321,0.1210625983551505,0.0,0.19962694556204377,0.19807848349254253,0.04754945050485193,1241.7321301529466,18593.531345458105
3.5317658829414706,906.6715211619291,906.1663744930805,0.12155305538799008,0.0,0.19977846917417977,0.19792646458032712,0.047548667325986664,1241.6256438960936,18603.963074528096
3.5417708854427215,906.7840232036658,906.2544489636214,0.12204428027351831,0.0,0.1999302297556181,0.1977742075434943,0.047547882320470025,1241.5189905968866,18614.385979040828
3.551775887943972,906.898298820167,906.3444856371782,0.12253627610820218,0.0,0.20008222824548405,0.19762171142550747,0.0475470954607764,1241.412169570641,18624.800108300984
3.5617808904452226,907.0143358870466,906.4365008741675,0.12302904599146555,0.0,0.20023446558353114,0.19746897526896623,0.047546306719007905,1241.3051801318281,18635.205511243606
3.571785892946473,907.1321204349262,906.5305065025449,0.12352259301491814,0.0,0.2003869427068455,0.19731599811893677,0.04754551606694935,1241.1980215964352,18645.602236400347
3.5817908954477238,907.2516368249716,906.6265100596262,0.12401692025144262,0.0,0.20053966054650435,0.19716277902632684,0.0475447234761208,1241.0906932843536,18655.990331869176
3.5917958979489746,907.3728679194861,906.7245150499002,0.12451203074412061,0.0,0.2006926200241817,0.19700931705131125,0.047543928917827376,1240.9831945218011,18666.36984528737
3.601800900450225,907.4957952462792,906.8245212131199,0.12500792749496417,0.0,0.2008458220486919,0.19685561126681833,0.04754313236320619,1240.8755246437843,18676.74082380775
3.6118059029514757,907.6203991558162,906.9265247976494,0.12550461345340533,0.0,0.20099926751245484,0.19670166076209228,0.04754233378327039,1240.7676829966117,18687.103314077973
3.621810905452726,907.7466589704075,907.0305188347488,0.1260020915044809,0.0,0.20115295728786448,0.1965474646463506,0.04754153314895002,1240.6596689404707,18697.4573622227
3.631815907953977,907.8745531249159,907.1364934101433,0.12650036445663768,0.0,0.20130689222353665,0.19639302205256037,0.047540730431129906,1240.5514818520862,18707.80301382857
3.6418209104552277,908.0040592986587,907.2444359298752,0.12699943502906685,0.0,0.2014610731404084,0.19623833214136072,0.04753992560068446,1240.4431211274782,18718.140313931654
3.651825912956478,908.1351545383413,907.3543313780079,0.1274993058384645,0.0,0.20161550082765672,0.1960833941051645,0.04753911862850949,1240.3345861848416,18728.469307007366
3.661830915457729,908.2678153719993,907.4661625642925,0.1279999793850993,0.0,0.20177017603839933,0.19592820717247542,0.04753830948555123,1240.2258764675755,18738.790036962517
3.6718359179589792,908.4020179140388,907.5799103603662,0.12850145803805288,0.0,0.20192509948513732,0.1957727706124624,0.04753749814283246,1240.1169914474895,18749.102547129434
3.68184092046023,908.5377379615518,907.6955539234676,0.129003744019485,0.0,0.20208027183489186,0.19561708373983747,0.04753668457147602,1240.007930628218,18759.40688026192
3.691845922961481,908.6749510821558,907.8130709070017,0.12950683938775465,0.0,0.20223569370398456,0.19546114592008876,0.04753586874272588,1239.8986935488822,18769.70307853292
3.701850925462731,908.8136326936558,907.9324376575763,0.1300107460192148,0.0,0.20239136565240393,0.19530495657512584,0.047535050627965765,1239.7892797880377,18779.991183533668
3.711855927963982,908.9537581358682,908.053629398387,0.13051546558847443,0.0,0.2025472881776942,0.19514851518940124,0.04753423019873552,1239.67968896795,18790.271236274282
3.7218609304652324,909.0953027349618,908.1766203990169,0.13102099954690252,0.0,0.20270346170829726,0.19499182131657783,0.04753340742674556,1239.5699207592525,18800.54327718547
3.731865932966483,909.2382418606923,908.3013841318792,0.131527349099124,0.0,0.20285988659626938,0.19483487458681958,0.04753258228388929,1239.4599748860355,18810.807346121437
3.741870935467734,909.3825509768993,908.4278934156534,0.1320345151772313,0.0,0.20301656310928815,0.19467767471479172,0.047531754742253705,1239.3498511314267,18821.063482363686
3.7518759379689843,909.5282056856439,908.5561205461589,0.1325424984124064,0.0,0.2031734914218537,0.19452022150846499,0.04753092477412852,1239.239549343735,18831.311724625637
3.761880940470235,909.6751817653363,908.6860374151673,0.13305129910361588,0.0,0.2033306716055813,0.19436251487882794,0.04753009235201372,1239.1290694432228,18841.55211105798
3.7718859429714855,909.8234552032048,908.8176156177113,0.1335609171830055,0.0,0.20348810361846797,0.19420455485062438,0.047529257448625725,1239.0184114295928,18851.784679254648
3.7818909454727363,909.973002222423,908.9508265484594,0.13407135217758198,0.0,0.20364578729300625,0.1940463415742424,0.04752842003690244,1238.9075753902769,18862.009466259242
3.791895947973987,910.1237993041983,909.0856414877418,0.13458260316672502,0.0,0.2038037223230032,0.19388787533889834,0.04752758009000713,1238.7965615096248,18872.22650857192
3.8019009504752375,910.2758232050905,909.2220316778091,0.13509466873502363,0.0,0.20396190824894736,0.19372915658727116,0.04752673758133131,1238.6853700791057,18882.435842156527
3.8119059529764883,910.4290509698124,909.3599683898918,0.13560754691987845,0.0,0.2041203444417511,0.19357018593176176,0.047525892484496825,1238.5740015086394,18892.637502448048
3.8219109554777386,910.5834599397188,909.4994229826012,0.13612123515325014,0.0,0.20427903008467563,0.1934109641725685,0.047525044773357145,1238.4624563391933,18902.83152436011
3.8319159579789894,910.7390277571794,909.6403669521973,0.1366357301968704,0.0,0.2044379641532271,0.1932514923177918,0.0475241944219979,1238.350735256792,18913.01794229263
3.8419209604802402,910.8957323659778,909.7827719752001,0.13715102807015817,0.0,0.2045971453927881,0.1930917716058024,0.04752334140473698,1238.238839108106,18923.196790139424
3.8519259629814906,911.0535520078639,909.9266099438013,0.1376671239700062,0.0,0.20475657229372657,0.19293180353013217,0.04752248569612412,1238.1267689177957,18933.36810129577
3.8619309654827414,911.2124652153437,910.0718529944762,0.1381840121815156,0.0,0.20491624306369513,0.19277158986717455,0.047521627270939996,1238.0145259078147,18943.53190866581
3.8719359679839918,911.3724508007583,910.2184735301724,0.13870168597866206,0.0,0.20507615559680567,0.1926111327070088,0.047520766104195124,1237.9021115188887,18953.688244669756
3.8819409704852426,911.5334878416711,910.3664442363932,0.1392201375137753,0.0,0.20523630743933302,0.19245043448769594,0.04751990217112844,1237.7895274344125,18963.837141250853
3.891945972986493,911.6955556625442,910.5157380914612,0.13973935769460424,0.0,0.20539669575156538,0.19228949803342685,0.04751903544720577,1237.6767756070353,18973.978629881985
3.9019509754877437,911.858633812651,910.6663283711952,0.14025933604762053,0.0,0.20555731726538481,0.19212832659694104,0.04751816590811817,1237.5638582882157,18984.112741571866
3.9119559779889945,912.0227020401345,910.8181886481957,0.14078006056608972,0.0,0.20571816823712066,0.19196692390667205,0.04751729352978027,1237.4507780610763,18994.23950687083
3.921960980490245,912.1877402620847,910.9712927858835,0.14130151754130468,0.0,0.20587924439517835,0.19180529421911788,0.04751641828832867,1237.3375378768967,19004.358955876014
3.9319659829914957,912.353728530469,911.1256149273952,0.1418236913752402,0.0,0.20604054088190252,0.19164344237697642,0.04751554016012044,1237.2241410956228,19014.471118236044
3.941970985492746,912.5206469937152,911.281129479394,0.14234656437274443,0.0,0.2062020521890908,0.19148137387363126,0.047514659121731834,1237.110591530805,19024.57602315494
3.951975987993997,912.6884758537084,911.4378110908092,0.14287011651123888,0.0,0.20636377208652829,0.19131909492461657,0.047513775149957235,1236.9968934993942,19034.673699395364
3.9619809904952477,912.8571953179237,911.5956346264788,0.14339432518576029,0.0,0.20652569354287015,0.19115661254673388,0.047512888221808484,1236.8830518768773,19044.76417528102
3.971985992996498,913.0267855463858,911.7545751356238,0.1439191649270392,0.0,0.20668780863815792,0.19099393464553555,0.047511998314514546,1236.7690721582371,19054.847478698113
3.981990995497749,913.197226593109,911.9146078150447,0.14444460709019266,0.0,0.2068501084672169,0.19083107011192757,0.047511105405521725,1236.6549605252708,19064.92363709587
3.991995997998999,913.368498341645,912.0757079668972,0.14497061951150395,0.0,0.20701258303315145,0.19066802892867493,0.04751020947249439,1236.540723920808,19074.99267748595
4.00200100050025,913.5405804343366,912.237850950863,0.14549716613069616,0.0,0.20717522113013193,0.19050482228761523,0.047509310493316415,1236.4263701303908,19085.05462644063
4.012006003001501,913.7134521948565,912.40101213051,0.14602420657607576,0.0,0.2073380102146614,0.19034146271839353,0.04750840844609325,1236.3119078719837,19095.109510089726
4.022011005502751,913.8870925436062,912.5651668136046,0.14655169570996043,0.0,0.20750093626451732,0.19017796422952246,0.047507503309154944,1236.1973468942722,19105.157354116134
4.0320160080040015,914.0614799055398,912.7302901861323,0.14707958313191283,0.0,0.2076639836246012,0.1900143424625351,0.04750659506105995,1236.082698084086,19115.198183749755
4.042021010505253,914.2365921100073,912.8963572397654,0.1476078126375189,0.0,0.2078271348389929,0.18985061485993365,0.047505683680600076,1235.9679735834331,19125.23202375982
4.052026013006503,914.4124062822349,913.0633426925338,0.14813632163079193,0.0,0.2079903704686154,0.18968680084752848,0.04750476914680654,1235.8531869165681,19135.258898445427
4.0620310155077535,914.5888987261305,913.2312209024677,0.14866504048879084,0.0,0.20815366889407141,0.1895229220316065,0.04750385143895721,1235.7383531273895,19145.278831624084
4.072036018009005,914.7660447981873,913.3999657740293,0.14919389187774848,0.0,0.20831700610343287,0.18935900241114637,0.04750293053658523,1235.6234889273246,19155.291846618242
4.082041020510255,914.9438187723853,913.5695506572087,0.14972279002095612,0.0,0.2084803554650611,0.1891950686050055,0.047502006419489255,1235.5086128536484,19165.297966239574
4.092046023011505,915.1221936961664,913.7399482392609,0.15025163991989332,0.0,0.20864368748591805,0.18903115009361598,0.047501079067745054,1235.393745437913,19175.297212770878
4.102051025512757,915.3011412377797,913.9111304291812,0.1507803365316719,0.0,0.20880696955632186,0.1888672794742373,0.0475001484617191,1235.2789093838228,19185.28960794553
4.112056028014007,915.4806315255772,914.0830682351879,0.15130876390784068,0.0,0.20897016568271268,0.18870349272820053,0.04749921458208383,1235.164129753471,19195.275172924223
4.122061030515257,915.6606329802013,914.2557316356957,0.15183679430201302,0.0,0.20913323621074356,0.1885398294978283,0.04749827740983506,1235.0494341603128,19205.253928269012
4.132066033016508,915.8411121410271,914.4290894445247,0.15236428725667728,0.0,0.2092961375419123,0.18837633336981524,0.04749733692631132,1234.9348529666454,19215.22589391448
4.142071035517759,916.0220334887462,914.6031091714149,0.15289108868296764,0.0,0.2094588218480079,0.18821305216079526,0.04749639311321558,1234.8204194826108,19225.191089135995
4.152076038019009,916.2033592665696,914.7777568792936,0.1534170299511008,0.0,0.2096212367888676,0.18805003819959945,0.047495445952639125,1234.7061701628909,19235.149532515035
4.16208104052026,916.3850493032203,914.9529970401898,0.1539419270136121,0.0,0.20978332524031099,0.1878873485993389,0.04749449542708788,1234.5921447963158,19245.10124190153
4.172086043021511,916.5670608416351,915.1287923921797,0.15446557958836865,0.0,0.2099450250406236,0.18772504551093908,0.047493541519511115,1234.478386682543,19255.046234373465
4.182091045522761,916.7493483781275,915.305103800303,0.1549877704334738,0.0,0.2101062687655547,0.18756319634816182,0.04749258421333254,1234.3649427888702,19264.984526193635
4.192096048024012,916.9318635176016,915.4818901249658,0.1555082647513944,0.0,0.21026698354341392,0.18740187397252972,0.04749162349248373,1234.2518638791041,19274.91613276412
4.202101050525263,917.1145548512616,915.6591081019444,0.15602680976464778,0.0,0.21042709092340392,0.187241156825016,0.047490659341439874,1234.1392046053352,19284.841068578542
4.212106053026513,917.2973678640287,915.8367122386705,0.15654313450978685,0.0,0.21058650681169305,0.18708112898999615,0.047489691745257426,1234.0270235525054,19294.759347172716
4.222111055527764,917.4802448795325,916.014654731997,0.1570569498997275,0.0,0.21074514149075588,0.18692188017593184,0.04748872068961379,1233.9153832249522,19304.670981074312
4.232116058029014,917.6631250509561,916.1928854130329,0.15756794910609082,0.0,0.21090289973801846,0.18676350559675206,0.047487746160848325,1233.8043499637547,19314.57598175211
4.242121060530265,917.8459444061293,916.3713517248603,0.15807580831254642,0.0,0.21105968105962747,0.18660610573811048,0.04748676814600445,1233.6939937838536,19324.474359565836
4.252126063031516,918.0286359549496,916.5499987389317,0.15858018788647152,0.0,0.21121538005402776,0.18644978599383485,0.04748578663287241,1233.5843881207131,19334.36612371761
4.262131065532766,918.2111298663852,916.7287692156141,0.1590807340089947,0.0,0.21136988691778114,0.18629465616013519,0.04748480161003172,1233.475609477867,19344.251282205947
4.272136068034017,918.3933537208947,916.9076037136747,0.15957708079219474,0.0,0.21152308810255527,0.18614082977864158,0.047483813066893164,1233.3677369691147,19354.129841783797
4.282141070535268,918.5752328420333,917.086440752407,0.16006885289667486,0.0,0.21167486712738462,0.18598842332416818,0.04748282099373899,1233.2608517525227,19364.001807921748
4.292146073036518,918.756690708325,917.2652170286011,0.16055566864307436,0.0,0.211825105544208,0.1858375552392003,0.04748182538176081,1233.1550363576098,19373.867184777802
4.302151075537768,918.9376494431898,917.4438676886667,0.16103714358791038,0.0,0.21197368404749325,0.18568834482429122,0.04748082622309431,1233.0503739121266,19383.725975175075
4.31215607803902,919.1180303770286,917.6223266540006,0.1615128945085813,0.0,0.21212048371083253,0.18554091100148615,0.047479823510849783,1232.9469472803555,19393.57818058862
4.32216108054027,919.2977546716221,917.8005269952582,0.16198254371601864,0.0,0.21226538732521338,0.185395370976068,0.04747881723913764,1232.8448381305568,19403.423801142526
4.33216608304152,919.4767439931504,917.9784013487027,0.1624457235883852,0.0,0.21240828080588547,0.18525183882970223,0.04747780740308836,1232.7441259546122,19413.262835618134
4.3421710855427715,919.6549212166517,918.1558823654493,0.16290208119766877,0.0,0.2125490546280585,0.18511042408474834,0.0474767939988658,1232.6448870675783,19423.095281474114
4.352176088044022,919.8322111419773,918.3329031823982,0.1633512828852922,0.0,0.2126876052467822,0.18497123028438334,0.04747577702367386,1232.5471936182603,19432.921134878477
4.362181090545272,920.0085411995649,918.5093979021538,0.1637930186349241,0.0,0.21282383645389957,0.18483435363564849,0.04747475647575559,1232.4511126436335,19442.740390752784
4.3721860930465235,920.1838421238582,918.6853020684088,0.16422700609192648,0.0,0.2129576606253508,0.18469988176214008,0.047473732354385144,1232.356705199675,19452.553042827793
4.382191095547774,920.3580485730703,918.8605531232438,0.1646529940897971,0.0,0.21308899981549467,0.18456789260967807,0.04747270465985223,1232.2640255987978,19462.359083709987
4.392196098049024,920.531099676209,919.0350908335494,0.165070765564156,0.0,0.21321778666138033,0.18443845354202018,0.04747167339343947,1232.1731207797156,19472.15850495775
4.402201100550275,920.7029394916789,919.2088576753113,0.1654801397627621,0.0,0.2133439650685701,0.18431162065502077,0.0474706385573932,1232.0840298295352,19481.9512971657
4.412206103051526,920.8735173660756,919.3817991666231,0.16588097369353744,0.0,0.2134674906605073,0.18418743832724013,0.047469600154888186,1231.9967836706148,19491.737450055618
4.422211105552776,921.042788186626,919.5538641428606,0.1662731627887322,0.0,0.21358833098464275,0.18406593901379315,0.04746855818998712,1231.9114049169239,19501.516952572158
4.4322161080540265,921.2107125256908,919.7250049702235,0.16665664079926948,0.0,0.21370646547967473,0.1839471432790802,0.04746751266759569,1231.8279078968635,19511.289792981428
4.442221110555278,921.3772566804497,919.8951776966138,0.16703137896610917,0.0,0.2138218852184368,0.18383106005386932,0.04746646359341414,1231.7462988324266,19521.05595897065
4.452226113056528,921.5423926149944,920.0643421413577,0.16739738454297046,0.0,0.21393459244950042,0.18371768709366088,0.04746541097388633,1231.6665761586153,19530.81543774723
4.4622311155577785,921.7060978153231,920.2324619274531,0.16775469876532106,0.0,0.21404459996694303,0.1836070116088863,0.047464354816147025,1231.5887309625969,19540.56821613555
4.47223611805903,921.8683550700317,920.3995044617161,0.1681033943735788,0.0,0.21415193034177826,0.1834990110334443,0.04746329512796838,1231.5127475192578,19550.314280670194
4.48224112056028,922.0291521907917,920.5654408693722,0.16844357280394412,0.0,0.2142566150502425,0.18339365389638007,0.04746223191770641,1231.4386038986306,19560.053617684556
4.4922461230615305,922.1884816870871,920.7302458903023,0.16877536115899874,0.0,0.2143586935337349,0.18329090076191182,0.04746116519424796,1231.3662726209398,19569.786213393814
4.502251125562781,922.3463404092372,920.8938977443415,0.16909890906329336,0.0,0.2144582122230634,0.18319070520515232,0.04746009496695892,1231.2957213365219,19579.512053971743
4.512256128064032,922.5027291726972,921.0563779728479,0.1694143854980712,0.0,0.2145552235562109,0.1830930147943104,0.047459021245633996,1231.2269135102586,19589.23112562101
4.5222611305652824,922.6576523751193,921.217671263259,0.16972197569550046,0.0,0.21464978501456394,0.1829977720544323,0.0474579440404486,1231.15980909314,19598.94341463664
4.532266133066533,922.811117615929,921.3777652626752,0.1700218781577225,0.0,0.2147419581978689,0.18290491539241618,0.04745686336191274,1231.0943651668408,19608.64890746283
4.542271135567784,922.9631353263221,921.5366503856936,0.1703143018508128,0.0,0.21483180795346266,0.1828143799677539,0.04745577922082763,1231.0305365504757,19618.34759074307
4.552276138069034,923.1137184157777,921.6943196208724,0.17059946360930114,0.0,0.21491940157083947,0.18272609849793822,0.047454691628244554,1230.9682763618205,19628.03945136402
4.562281140570285,923.2628819395094,921.8507683393606,0.17087758577391005,0.0,0.21500480804858646,0.18264000199150307,0.04745360059542645,1230.9075365281092,19637.724476493353
4.572286143071536,923.4106427897711,922.0059941084463,0.1711488940738839,0.0,0.21508809743721638,0.18255602040516788,0.047452506133812036,1230.8482682439376,19647.40265361203
4.582291145572786,923.557019412663,922.159996512078,0.17141361575605726,0.0,0.21516934025856627,0.18247408322441805,0.04745140825498233,1230.7904223758158,19657.073970541514
4.592296148074037,923.7020315510357,922.312776979793,0.17167197795542585,0.0,0.21524860700013607,0.18239411996914637,0.0474503069706297,1230.7339498145006,19666.738415466243
4.602301150575287,923.8457000132644,922.4643386249825,0.17192420629650515,0.0,0.21532596768104378,0.1823160606276802,0.047449202292529226,1230.678801777419,19676.395976951986
4.612306153076538,923.9880464670405,922.6146860930057,0.17217052371086267,0.0,0.21540149148506166,0.1822398360237281,0.04744809423251216,1230.6249300643522,19686.046643960373
4.622311155577789,924.1290932568928,922.7638254193297,0.17241114945375374,0.0,0.21547524645543759,0.18216537812154332,0.047446982802441647,1230.5722872700653,19695.690405860198
4.632316158079039,924.268863243846,922.9117638976269,0.17264629830137876,0.0,0.21554729924576566,0.1820926202750388,0.04744586801419015,1230.5208269578789,19705.327252435713
4.64232116058029,924.4073796654615,923.0585099575716,0.17287617990989165,0.0,0.2156177149210518,0.1820214974267087,0.047444749879619004,1230.4705037982665,19714.957173892457
4.652326163081541,924.5446660144323,923.2040730519485,0.17310099831751322,0.0,0.21568655680318669,0.18195194626214342,0.04744362841055939,1230.4212736765064,19724.58016086084
4.662331165582791,924.6807459338983,923.3484635526002,0.1733209515718248,0.0,0.2157538863552656,0.18188390532569884,0.047442503618795054,1230.3730937732682,19734.19620439783
4.672336168084042,924.8156431277059,923.4916926546854,0.17353623146542757,0.0,0.21581976309953627,0.18181731510253843,0.04744137551604647,1230.325922621762,19743.80529598702
4.682341170585293,924.949381283928,923.6337722887039,0.17374702336444267,0.0,0.21588424456415753,0.1817521180718653,0.047440244113956295,1230.2797201448184,19753.40742753731
4.692346173086543,925.0819840100653,923.7747150397315,0.17395350611568855,0.0,0.21594738625437418,0.18168825873573924,0.047439109424076156,1230.2344476749515,19763.002591380435
4.702351175587793,925.2134747784892,923.9145340733232,0.17415585201987407,0.0,0.21600924164417817,0.1816256836274075,0.047437971457854534,1230.1900679601504,19772.590780267503
4.712356178089045,925.3438768808132,924.0532430675664,0.17435422685953422,0.0,0.21606986218495863,0.18156434130264815,0.047436830226625766,1230.1465451578306,19782.17198736472
4.722361180590295,925.4732133900075,924.190856150782,0.1745487899717427,0.0,0.21612929732804775,0.18150418231721765,0.047435685741600016,1230.103844819106,19791.74620624844
4.732366183091545,925.6015071292071,924.3273878444137,0.1747396943569911,0.0,0.21618759455849093,0.181445159193075,0.04743453801385415,1230.0619338652405,19801.313430899663
4.742371185592797,925.7287806462836,924.4628530106761,0.17492708681674918,0.0,0.21624479943771813,0.18138722637570506,0.047433387054323525,1230.0207805578964,19810.87365569813
4.752376188094047,925.8550561933541,924.5972668045553,0.1751111081132459,0.0,0.21630095565311172,0.1813303401845461,0.04743223287379442,1229.98035446458,19820.426875416008
4.762381190595297,925.9803557105181,924.7306446298027,0.17529189314605115,0.0,0.2163561050727888,0.1812744587582034,0.04743107548289735,1229.940626420453,19829.97308521132
4.7723861930965485,926.1047008131881,924.8630020985813,0.1754695711407835,0.0,0.21641028780414726,0.1812195419958986,0.04742991489210097,1229.9015684875242,19839.512280621213
4.782391195597799,926.2281127824797,924.9943549944617,0.17564426584609816,0.0,0.21646354225498254,0.18116555149635044,0.047428751111706566,1229.8631539120481,19849.044457554995
4.792396198099049,926.3506125581904,925.1247192384869,0.17581609573570733,0.0,0.21651590519616654,0.181112450495092,0.0474275841518432,1229.82535708084,19858.569612287134
4.8024012006003,926.4722207339603,925.2541108580526,0.175985174212757,0.0,0.21656741182505895,0.18106020380105703,0.04742641402246335,1229.7881534770754,19868.08774145016
4.812406203101551,926.592957554272,925.3825459583694,0.17615160981437492,0.0,0.2166180958289721,0.18100877773311247,0.04742524073333903,1229.7515196360603,19877.598842027524
4.822411205602801,926.7128429129936,925.5100406963014,0.17631550641465266,0.0,0.216667989448151,0.18095814005707633,0.0474240642940584,1229.7154331013337,19887.102911346516
4.832416208104052,926.8318963532095,925.6366112563883,0.1764769634246109,0.0,0.21671712353781764,0.1809082599236715,0.04742288471402273,1229.679872381428,19896.59994707111
4.842421210605303,926.9501370681236,925.7622738288755,0.1766360759880708,0.0,0.21676552762894585,0.18085910780774908,0.04742170200244392,1229.6448169075084,19906.08994719492
4.852426213106553,927.0675839028503,925.8870445895956,0.17679293517252745,0.0,0.21681322998748528,0.18081065544906333,0.047420516168342176,1229.610246992102,19915.57291003418
4.862431215607804,927.1842553569419,926.0109396815591,0.17694762815445844,0.0,0.21686025767185999,0.18076287579477165,0.047419327220544184,1229.5761437890221,19925.048834220815
4.872436218109055,927.3001695875129,926.133975198119,0.17710023839850658,0.0,0.21690663658856577,0.18071574294383624,0.047418135167681535,1229.5424892546228,19934.517718695555
4.882441220610305,927.415344412858,926.2561671675928,0.17725084583030504,0.0,0.2169523915457955,0.1806692320933981,0.04741694001818944,1229.509266110425,19943.979562701148
4.8924462231115555,927.5297973164609,926.3775315392285,0.17739952700266995,0.0,0.21699754630500687,0.18062331948720853,0.04741574178030576,1229.4764578071793,19953.43436577572
4.902451225612806,927.6435454513236,926.4980841704181,0.1775463552551277,0.0,0.2170421236304221,0.180577982366129,0.047414540462070234,1229.444048490371,19962.88212774614
4.912456228114057,927.7566056445419,926.617840815063,0.17769140086671,0.0,0.21708614533643897,0.18053319892071995,0.04741333607132398,1229.4120229671755,19972.322848721535
4.9224612306153075,927.8689944020747,926.7368171130073,0.17783473120208793,0.0,0.21712963233297497,0.18048894824589598,0.04741212861570924,1229.3803666748622,19981.756529086975
4.932466233116558,927.9807279136611,926.8550285804627,0.17797641085112964,0.0,0.21717260466877175,0.18044521029762198,0.04741091810266919,1229.349065650613,19991.18316949713
4.942471235617809,928.0918220578402,926.972490601349,0.1781165017620094,0.0,0.217215081572698,0.18040196585160986,0.047409704539448136,1229.3181065027425,20000.60277087014
4.9524762381190595,928.20229240705,927.0892184194905,0.17825506336807012,0.0,0.21725708149311476,0.18035919646395354,0.04740848793309172,1229.2874763832615,20010.015334381595
4.96248124062031,928.3121542327697,927.2052271315993,0.17839215270858225,0.0,0.21729862213534662,0.1803168844336579,0.047407268290447405,1229.257162961767,20019.42086145855
4.972486243121561,928.4214225106886,927.3205316809953,0.17852782454364305,0.0,0.21733972049733533,0.18027501276698585,0.04740604561816498,1229.227154400597,20028.81935377372
4.982491245622811,928.5301119258796,927.4351468520078,0.17866213146342322,0.0,0.217380392903539,0.18023356514355918,0.04740481992269732,1229.1974393312048,20038.21081323979
4.992496248124062,928.6382371634028,927.5490872381215,0.17879512607732753,0.0,0.21742065503591365,0.18019252588538157,0.04740359185869613,1229.1680063807803,20047.595242004452
5.002501250625312,928.7458146522969,927.6623671851843,0.1789268732451319,0.0,0.2174605219282666,0.18015187996259094,0.04740236653069712,1229.1388415274814,20056.97264246586
5.012506253126563,928.8528588553544,927.7750012165759,0.17905742262396165,0.0,0.21750000799238078,0.18011161296735395,0.04740114494746989,1229.109934036891,20066.34301727252
5.022511255627814,928.9593835084514,927.8870037274439,0.17918681873114328,0.0,0.21753912708982684,0.18007171104193115,0.047399927072670996,1229.0812742859184,20075.706369294923
5.032516258129064,929.0654020767433,927.9983889234661,0.17931510440598045,0.0,0.21757789256013152,0.18003216085050275,0.047398712870958405,1229.0528530142217,20085.062701618957
5.042521260630315,929.170927759831,928.1091708188776,0.17944232088855241,0.0,0.21761631724524447,0.17999294955470294,0.04739750230797848,1229.0246613071674,20094.412017540762
5.052526263131566,929.2759734968655,928.2193632348863,0.17956850789448972,0.0,0.21765441351275713,0.1799540647904018,0.04739629535035271,1228.9966905796643,20103.754320561664
5.062531265632816,929.3805519715846,928.3289797984477,0.1796937036859355,0.0,0.217692193277938,0.1799154946456711,0.047395091965664625,1228.9689325608167,20113.089614383214
5.072536268134067,929.4846756172805,928.4380339413736,0.1798179451388739,0.0,0.21772966802464097,0.17987722763987737,0.04739389212244675,1228.9413792793687,20122.417902902343
5.082541270635318,929.588356621694,928.5465388997472,0.1799412678070075,0.0,0.2177668488251424,0.17983925270384538,0.047392695790167375,1228.9140230498908,20131.739190206616
5.092546273136568,929.6916069318377,928.6545077136234,0.18006370598237906,0.0,0.21780374635896863,0.17980155916103227,0.04739150293921766,1228.8868564596723,20141.05348056957
5.102551275637818,929.7944382587413,928.7619532269914,0.18018529275287934,0.0,0.21784037093075675,0.17976413670966765,0.04739031354089854,1228.8598723562882,20150.360778446186
5.11255627813907,929.8968620821283,928.8688880879824,0.1803060600568577,0.0,0.2178767324872167,0.17972697540579283,0.047389127567407915,1228.833063835789,20159.661088468376
5.12256128064032,929.9988896550117,928.9753247492968,0.18042603873492058,0.0,0.21791284063322056,0.17969006564717266,0.04738794499182772,1228.8064242315027,20168.95441544073
5.13256628314157,930.1005320082177,929.0812754688417,0.18054525857911705,0.0,0.21794870464708102,0.1796533981580183,0.04738676578811122,1228.7799471033986,20178.24076433613
5.142571285642822,930.2017999548357,929.1867523105554,0.18066374837964724,0.0,0.21798433349506147,0.17961696397447846,0.047385589931070345,1228.7536262279898,20187.520140291657
5.152576288144072,930.3027040945899,929.2917671454055,0.18078153596918103,0.0,0.21801973584514386,0.17958075443087246,0.0473844173963631,1228.7274555887493,20196.792548604484
5.162581290645322,930.4032548181402,929.396331652549,0.18089864826499302,0.0,0.2180549200801197,0.17954476114660095,0.04738324816048115,1228.7014293669993,20206.057994727857
5.172586293146573,930.5034623113091,929.5004573206353,0.1810151113089521,0.0,0.21808989431001455,0.17950897601372245,0.04738208220073746,1228.6755419332683,20215.316484267223
5.182591295647824,930.603336559234,929.6041554492456,0.1811309503055424,0.0,0.2181246663839018,0.17947339118514072,0.047380919495254074,1228.6497878390655,20224.568022976382
5.192596298149074,930.7028873504485,929.7074371504508,0.18124618965797554,0.0,0.21815924390112432,0.17943799906338465,0.04737976002295004,1228.624161809078,20233.812616753738
5.202601300650325,930.8021242808913,929.8103133504812,0.18136085300252158,0.0,0.2181936342219626,0.17940279228994108,0.047378603763529384,1228.5986587337445,20243.050271638665
5.212606303151576,930.9010567578464,929.9127947914972,0.18147496324116605,0.0,0.21822784447778443,0.1793677637351069,0.04737745069746938,1228.5732736621974,20252.280993807897
5.222611305652826,930.999694003811,930.0148920334499,0.18158854257265325,0.0,0.2182618815806922,0.1793329064883423,0.047376300806008784,1228.548001795548,20261.504789572064
5.232616308154077,931.0980450602955,930.1166154560206,0.18170161252200454,0.0,0.2182957522326984,0.17929821384909722,0.04737515407113625,1228.5228384805082,20270.721665372228
5.242621310655328,931.1961187915546,930.2179752606368,0.18181419396863166,0.0,0.2183294629344639,0.17926367931807405,0.047374010475579015,1228.497779203309,20279.931627776557
5.252626313156578,931.2939238882518,930.3189814725514,0.18192630717306957,0.0,0.21836301999360816,0.17922929658891856,0.04737287000279158,1228.4728195839236,20289.13468347706
5.262631315657829,931.391468871058,930.4196439429794,0.182037971802437,0.0,0.21839642953262453,0.17919505954030618,0.047371732636944545,1228.4479553705607,20298.33083928636
5.272636318159079,931.4887620941821,930.5199723512869,0.1821492069546848,0.0,0.218429697496419,0.17916096222840416,0.04737059836291381,1228.423182434424,20307.52010213457
5.28264132066033,931.5858117488408,930.6199762072226,0.18226003118167883,0.0,0.21846282965948718,0.17912699887969613,0.04736946716626958,1228.3984967647202,20316.70247906626
5.292646323161581,931.6826258666571,930.719664853188,0.18237046251118819,0.0,0.21849583163275177,0.17909316388414562,0.04736833903326583,1228.3738944639072,20325.87797723743
5.302651325662831,931.7792123230063,930.8190474665413,0.18248051846786661,0.0,0.21852870887008694,0.17905945178867316,0.04736721395082976,1228.349371743156,20335.0466039126
5.312656328164082,931.8755788402925,930.9181330619301,0.18259021609323572,0.0,0.21856146667453302,0.17902585729094256,0.047366091906551465,1228.324924918032,20344.20836646195
5.3226613306653325,931.9717329911641,931.0169304936422,0.18269957196472433,0.0,0.21859411020421826,0.17899237523344047,0.047364972888673765,1228.3005504043786,20353.36327235853
5.332666333166583,932.0676822016715,931.1154484579799,0.18280860221385478,0.0,0.2186266444780154,0.17895900059782113,0.047363856886082176,1228.276244714386,20362.511329175515
5.342671335667834,932.1634337543661,931.2136954956457,0.18291732254358575,0.0,0.21865907438093649,0.17892572849951247,0.047362743888295006,1228.2520044528414,20371.652544583543
5.3526763381690845,932.2589947913359,931.3116799941378,0.1830257482448442,0.0,0.21869140466927603,0.1788925541825744,0.0473616338854537,1228.2278263135556,20380.78692634812
5.362681340670335,932.3543723171888,931.4094101901536,0.18313389421233703,0.0,0.21872363997553,0.17885947301478072,0.047360526868313255,1228.2037070759445,20389.914482327036
5.372686343171585,932.449573201975,931.5068941719966,0.1832417749596224,0.0,0.21875578481308533,0.17882648048293087,0.04735942282823287,1228.1796436017712,20399.0352204679
5.3826913456728365,932.5446041840546,931.6041398819799,0.18334940463350952,0.0,0.21878784358070083,0.17879357218837033,0.04735832175716665,1228.1556328320337,20408.14914880571
5.392696348174087,932.6394718729116,931.7011551188328,0.18345679702783693,0.0,0.21881982056679475,0.17876074384270385,0.047357223647654614,1228.1316717839857,20417.25627546044
5.402701350675337,932.7341827519094,931.7979475400961,0.1835639655966014,0.0,0.2188517199535308,0.1787279912637107,0.04735612849281368,1228.1077575482989,20426.356608634753
5.412706353176588,932.8287431809972,931.8945246645122,0.18367092346653605,0.0,0.2188835458207333,0.17869531037143074,0.047355036286329005,1228.0838872863444,20435.450156611707
5.422711355677839,932.923159399361,931.9908938744073,0.18377768344914167,0.0,0.21891530214963195,0.17866269718442043,0.04735394702244529,1228.060058227591,20444.53692775253
5.432716358179089,933.0174375280236,932.0870624180562,0.1838842580521615,0.0,0.2189469928264342,0.17863014781618167,0.047352860695958385,1228.0362676671261,20453.61693049449
5.44272136068034,933.1115835723897,932.1830374120352,0.1839906594905708,0.0,0.2189786216457466,0.17859765847174167,0.04735177730220699,1228.012512963279,20462.69017334873
5.452726363181591,933.2056034247494,932.2788258435627,0.18409689969713047,0.0,0.2190101923138608,0.17856522544436768,0.04735069683706446,1227.9887915353409,20471.756664898225
5.462731365682841,933.2995028667216,932.3744345728145,0.184202990332421,0.0,0.21904170845187784,0.1785328451124438,0.047349619296930864,1227.9651008613944,20480.816413795757
5.4727363681840915,933.3932875716561,932.4698703352279,0.18430894279450447,0.0,0.2190731735987174,0.17850051393646302,0.04734854467872512,1227.9414384762267,20489.86942876195
5.482741370685343,933.4869631069844,932.5651397437808,0.18441476822815273,0.0,0.21910459121399137,0.17846822845615393,0.04734747297987728,1227.917801969335,20498.915718583325
5.492746373186593,933.5805349365238,932.6602492912493,0.1845204775336866,0.0,0.21913596468075758,0.17843598528772897,0.047346404198321,1227.8941889830132,20507.955292110422
5.5027513756878434,933.6740084227356,932.7552053524452,0.18462608137545578,0.0,0.21916729730816084,0.17840378112124342,0.04734533833248613,1227.8705972105236,20516.988158255976
5.512756378189095,933.7673888289369,932.8500141864266,0.18473159018995428,0.0,0.21919859233396152,0.17837161271806823,0.04734427538129145,1227.8470243943382,20526.0143259931
5.522761380690345,933.8606813214673,932.9446819386873,0.18483701419360588,0.0,0.21922985292696087,0.1783394769084656,0.04734321534413757,1227.8234683244596,20535.033804353556
5.532766383191595,933.9538909718117,933.0392146433168,0.18494236339022618,0.0,0.21926108218932647,0.17830737058926427,0.047342158220899884,1227.7999268368053,20544.046602426013
5.542771385692847,934.0470227586809,933.1336182251379,0.18504764757818815,0.0,0.21929228315882474,0.17827529072162793,0.04734110401192182,1227.7763978116618,20553.0527293544
5.552776388194097,934.1400815700468,933.2278985018154,0.1851528763572822,0.0,0.21932345881095927,0.178243234328918,0.047340052718008056,1227.7528791721993,20562.052194336262
5.562781390695347,934.2330722051381,933.3220611859382,0.18525805913531312,0.0,0.21935461206102663,0.17821119849463837,0.047339004340418024,1227.7293688830478,20571.045006621174
5.572786393196598,934.3259993763928,933.4161118870726,0.18536320513441384,0.0,0.2193857457660847,0.17817918036046812,0.04733795888085938,1227.7058649489318,20580.03117550918
5.582791395697849,934.4188677113715,933.5100561137889,0.1854683233971284,0.0,0.21941686272684865,0.17814717712436626,0.04733691634148182,1227.6823654133557,20589.010710349266
5.592796398199099,934.5116817546302,933.603899275659,0.18557342279223576,0.0,0.21944796568950692,0.17811518603875662,0.04733587672487078,1227.6588683573445,20597.983620537896
5.60280140070035,934.6044459695552,933.6976466852249,0.18567851202036037,0.0,0.2194790573474704,0.17808320440877948,0.04733484003404148,1227.6353718982339,20606.949915517544
5.612806403201601,934.6971647401574,933.7913035599371,0.18578359961933863,0.0,0.2195101403430459,0.17805122959061886,0.04733380627243295,1227.611874188506,20615.90960477529
5.622811405702851,934.7898423728287,933.8848750240654,0.18588869396939237,0.0,0.21954121726904946,0.1780192589898899,0.04733277544390229,1227.588373414676,20624.862697841454
5.632816408204102,934.8824830980662,933.9783661105802,0.18599380329810702,0.0,0.21957229067035905,0.1779872900600871,0.0473317475527189,1227.5648677962129,20633.809204288224
5.642821410705353,934.9750910721525,934.0717817630028,0.18609893568519736,0.0,0.21960336304540118,0.17795532030109837,0.04733072260355903,1227.5413555845114,20642.74913372835
5.652826413206603,935.067670378806,934.165126837227,0.18620409906710475,0.0,0.21963443684758469,0.17792334725777173,0.04732970060150025,1227.517835061898,20651.682495813882
5.662831415707854,935.1602250307952,934.258406103313,0.18630930124142345,0.0,0.21966551448668203,0.1778913685185353,0.0473286815520162,1227.4943045406749,20660.609300234886
5.672836418209104,935.2527589715149,934.3516242472472,0.186414549871134,0.0,0.21969659833014984,0.17785938171407678,0.04732766546097136,1227.4707623622037,20669.529556718247
5.682841420710355,935.3452760765333,934.4447858726772,0.18651985248870717,0.0,0.2197276907044096,0.177827384516064,0.04732665233461595,1227.44720689602,20678.443275026468
5.692846423211606,935.437780155105,934.5378955026166,0.18662521650004635,0.0,0.2197587938960779,0.17779537463591488,0.04732564217958093,1227.423636538981,20687.35046495649
5.702851425712856,935.5302749516475,934.6309575811161,0.18673064918825383,0.0,0.21978991015314187,0.17776334982362296,0.047324635002873164,1227.400049714452,20696.25113633859
5.712856428214107,935.6227641471921,934.7239764749127,0.1868361577173056,0.0,0.21982104168610633,0.17773130786661107,0.04732363081187062,1227.3764448715117,20705.14529903525
5.722861430715358,935.715251360798,934.8169564750432,0.18694174913555214,0.0,0.21985219066908623,0.17769924658863887,0.04732262961431773,1227.3528204841964,20714.032962940073
5.732866433216608,935.8077401509382,934.9099017984333,0.18704743037909968,0.0,0.2198833592408626,0.17766716384874812,0.047321631418320825,1227.3291750507685,20722.914137976753
5.742871435717859,935.9002340168565,935.0028165894561,0.187153208275084,0.0,0.2199145495059043,0.17763505754024134,0.04732063623234368,1227.3055070930095,20731.78883409801
5.7528764382191095,935.9927363998927,935.0957049214638,0.18725908954481382,0.0,0.21994576353534978,0.17760292558970056,0.04731964406520313,1227.281815155542,20740.657061284615
5.76288144072036,936.0852506847788,935.1885707982893,0.18736508080678463,0.0,0.2199770033679481,0.17757076595604696,0.04731865492606485,1227.2580978051765,20749.51882954439
5.77288644322161,936.1777802009107,935.2814181557212,0.18747118857962541,0.0,0.22000827101097914,0.1775385766296212,0.047317668824439156,1227.2343536302749,20758.374148911287
5.7828914457228615,936.2703282235859,935.3742508629522,0.1875774192848942,0.0,0.22003956844112682,0.17750635563131087,0.04731668577017697,1227.2105812401494,20767.223029444405
5.792896448224112,936.3628979752202,935.4670727239983,0.1876837792498119,0.0,0.22007089760533272,0.17747410101169708,0.04731570577346579,1227.1867792644673,20776.065481227102
5.802901450725362,936.455492626533,935.5598874790909,0.18779027470987283,0.0,0.22010226042161207,0.17744181085023958,0.047314728844825855,1227.1629463526908,20784.901514366135
5.8129064532266135,936.5481152977108,935.6526988060461,0.18789691181138846,0.0,0.22013365877984792,0.17740948325448253,0.047313754995106344,1227.1390811735243,20793.731138990737
5.822911455727864,936.6407690595408,935.7455103216035,0.18800369661392352,0.0,0.22016509454255245,0.1773771163592938,0.0473127842354816,1227.1151824143915,20802.554365251846
5.832916458229114,936.7334569345217,935.8383255827385,0.18811063509264758,0.0,0.22019656954560182,0.17734470832613106,0.0473118165774476,1227.0912487809233,20811.37120332121
5.8429214607303654,936.82618189795,935.931148087954,0.188217733140622,0.0,0.22022808559895063,0.17731225734232725,0.04731085203281832,1227.0672789964674,20820.181663390627
5.852926463231616,936.9189468789821,936.0239812785413,0.1883249965709908,0.0,0.22025964448731672,0.1772797616204066,0.04730989061372235,1227.0432718016125,20828.985755671143
5.862931465732866,937.0117547616725,936.11682853982,0.18843243111912142,0.0,0.22029124797085017,0.17724721939741597,0.04730893233259947,1227.0192259537273,20837.7834903923
5.8729364682341165,937.1046083859895,936.2096932023503,0.1885400424446394,0.0,0.22032289778576922,0.1772146289342894,0.04730797720219738,1226.9951402265197,20846.574877801373
5.882941470735368,937.1975105488087,936.3025785431241,0.1886478361334282,0.0,0.22035459564498538,0.17718198851522343,0.04730702523556842,1226.9710134096056,20855.359928162674
5.892946473236618,937.2904640048808,936.3954877867288,0.18875581769953279,0.0,0.22038634323869857,0.17714929644708236,0.04730607644606651,1226.946844308097,20864.138651756788
5.9029514757378685,937.3834714677851,936.4884241064899,0.18886399258702768,0.0,0.220418142234981,0.17711655105881483,0.047305130847344015,1226.9226317421994,20872.911058879967
5.91295647823912,937.4765356108536,936.5813906255906,0.18897236617180496,0.0,0.22044999428033643,0.17708375070089508,0.047304188453348744,1226.8983745468236,20881.677159843355
5.92296148074037,937.5696590680798,936.6743904181659,0.18908094376330184,0.0,0.22048190100023998,0.17705089374478333,0.047303249278321066,1226.8740715712158,20890.436964972414
5.9329664832416205,937.6628444350076,936.7674265103796,0.1891897306062049,0.0,0.22051386399967124,0.1770179785823932,0.04730231333679099,1226.8497216785852,20899.190484606235
5.942971485742872,937.7560942695955,936.8605018814717,0.18929873188204524,0.0,0.22054588486361312,0.17698500362559316,0.04730138064357545,1226.8253237457632,20907.93772909694
5.952976488244122,937.8494110930665,936.9536194647922,0.18940795271079444,0.0,0.2205779651575509,0.176951967305708,0.04730045121377548,1226.800876662856,20916.678708809042
5.962981490745372,937.9427973907374,937.0467821488074,0.18951739815238572,0.0,0.22061010642794793,0.17691886807304333,0.047299525062773656,1226.776379332917,20925.413434118884
5.972986493246623,938.0362556128268,937.1399927780878,0.18962707320816916,0.0,0.22064231020270095,0.17688570439643073,0.04729860220623145,1226.7518306716336,20934.141915414046
5.982991495747874,938.1297881752505,937.2332541542761,0.18973698282236884,0.0,0.2206745779915955,0.17685247476277247,0.0472976826600867,1226.7272296070091,20942.864163092767
5.992996498249124,938.2233974603919,937.3265690370316,0.1898471318834383,0.0,0.22070691128673045,0.17681917767661767,0.04729676644055114,1226.7025750790747,20951.58018756342
6.003001500750375,938.3170858178651,937.4199401449612,0.18995752522544063,0.0,0.22073931156294926,0.17678581165973117,0.04729585356410801,1226.6778660395853,20960.28999924395
6.013006503251626,938.4108555652504,937.5133701565235,0.19006816762931714,0.0,0.2207717802782371,0.17675237525069665,0.04729494404750967,1226.653101451752,20968.993608561366
6.023011505752876,938.50470898882,937.6068617109187,0.19017906382416624,0.0,0.220804318874121,0.17671886700451694,0.047294037907775345,1226.6282802899611,20977.69102595124
6.033016508254127,938.5986483442445,937.7004174089569,0.19029021848845615,0.0,0.22083692877604885,0.1766852854922351,0.04729313516218885,1226.6034015395132,20986.382261857183
6.043021510755377,938.6926758572847,937.794039813911,0.19040163625121762,0.0,0.22086961139376332,0.17665162930056136,0.04729223582829642,1226.578464196367,20995.06732673037
6.053026513256628,938.7867937244712,937.887731452349,0.19051332169321208,0.0,0.22090236812166666,0.1766178970315078,0.04729133992390461,1226.5534672668853,21003.74623102909
6.063031515757879,938.8810041137601,937.9814948149489,0.19062527934802206,0.0,0.22093520033916228,0.17658408730204767,0.047290447467078146,1226.5284097676006,21012.418985218257
6.073036518259129,938.9753091651828,938.0753323572969,0.19073751370315442,0.0,0.2209681094109999,0.17655019874377031,0.047289558476138,1226.5032907249754,21021.085599768983
6.08304152076038,939.0697109914777,938.1692465006689,0.19085002920109542,0.0,0.22100109668760565,0.17651623000255118,0.047288672969659315,1226.4781091751768,21029.746085158127
6.093046523261631,939.1642116787076,938.263239632795,0.19096283024033672,0.0,0.22103416350540314,0.1764821797382313,0.04728779096646953,1226.4528641638508,21038.400451867852
6.103051525762881,939.2588132868636,938.3573141086064,0.19107592117636113,0.0,0.2210673111871221,0.17644804662430874,0.047286912485646516,1226.4275547459135,21047.04871038527
6.113056528264132,939.3535178504554,938.451472250967,0.19118930632261485,0.0,0.22110054104210242,0.17641382934763472,0.04728603754651671,1226.4021799853392,21055.69087120197
6.123061530765383,939.4483273790897,938.545716351391,0.19130298995145587,0.0,0.2211338543665911,0.17637952660811718,0.04728516616865333,1226.3767389549555,21064.326944813656
6.133066533266633,939.5432438580351,938.6400486707433,0.19141697629506751,0.0,0.22116725244402816,0.17634513711843472,0.04728429837187466,1226.3512307362457,21072.95694171978
6.143071535767883,939.6382692487725,938.734471439924,0.19153126954633626,0.0,0.22120073654532127,0.17631065960376258,0.04728343417624235,1226.3256544191602,21081.58087242312
6.153076538269135,939.7334054895358,938.8289868605403,0.19164587385972945,0.0,0.22123430792912055,0.17627609280149767,0.04728257360205973,1226.3000091019255,21090.19874742947
6.163081540770385,939.8286544958424,938.9235971055637,0.19176079335215154,0.0,0.2212679678420865,0.1762414354609913,0.047281716669870216,1226.2742938908611,21098.810577247245
6.173086543271635,939.9240181610037,939.0183043199697,0.19187603210372628,0.0,0.22130171751913483,0.17620668634330414,0.047280863400455786,1226.248507900209,21107.416372387153
6.1830915457728866,940.0194983566363,939.11311062137,0.1919915941586421,0.0,0.221335558183701,0.17617184422094212,0.04728001381483534,1226.2226502519509,21116.016143361852
6.193096548274137,940.1150969331518,939.2080181006244,0.19210748352590332,0.0,0.22136949104797532,0.17613690787762135,0.04727916793426331,1226.196720075647,21124.609900685628
6.203101550775387,940.210815720241,939.3030288224437,0.1922237041800968,0.0,0.22140351731314303,0.17610187610802855,0.047278325780228156,1226.1707165082707,21133.197654874075
6.2131065532766385,940.3066565273456,939.3981448259785,0.1923402600621312,0.0,0.22143763816961543,0.17606674771758965,0.04727748737445097,1226.1446386940472,21141.7794164438
6.223111555777889,940.4026211441212,939.4933681253954,0.1924571550799668,0.0,0.22147185479725842,0.17603152152224172,0.04727665273888406,1226.118485784297,21150.355195912063
6.233116558279139,940.4987113408881,939.5887007104392,0.19257439310930366,0.0,0.221506168365608,0.17599619634821775,0.047275821895709634,1226.092256937287,21158.92500379656
6.24312156078039,940.5949288690741,939.6841445469863,0.1926919779942871,0.0,0.22154058003409074,0.17596077103182592,0.04727499486733849,1226.0659513180779,21167.488850615082
6.253126563281641,940.6912754616466,939.7797015775833,0.19280991354816665,0.0,0.2215750909522302,0.17592524441924368,0.047274171676408724,1226.039568098383,21176.046746885255
6.263131565782891,940.7877528335358,939.8753737219748,0.19292820355395818,0.0,0.2216097022598541,0.17588961536631073,0.04727335234578448,1226.0131064564227,21184.59870312428
6.273136568284142,940.8843626820478,939.9711628776197,0.1930468517650689,0.0,0.22164441508728994,0.17585388273833338,0.04727253689855477,1225.9865655767926,21193.14472984864
6.283141570785393,940.9811066872712,940.0670709201988,0.19316586190594556,0.0,0.22167923055556762,0.17581804540988213,0.047271725358032236,1225.9599446503203,21201.684837573855
6.293146573286643,941.0779865124723,940.163099704107,0.1932852376726696,0.0,0.22171414977660595,0.17578210226460536,0.04727091774775206,1225.93324287394,21210.21903681425
6.3031515757878935,941.1750038044822,940.2592510629385,0.19340498273355172,0.0,0.22174917385339854,0.17574605219504363,0.04727011409147079,1225.906459450561,21218.747338082696
6.313156578289145,941.2721601940775,940.3555268099603,0.19352510072972479,0.0,0.22178430388019915,0.17570989410244406,0.047269314413165314,1225.8795935889411,21227.269751890362
6.323161580790395,941.3694572963515,940.4519287385763,0.1936455952757121,0.0,0.22181954094269987,0.17567362689658306,0.0472685187370317,1225.8526445035652,21235.786288746505
6.3331665832916455,941.4668967110778,940.5484586227805,0.1937664699599891,0.0,0.22185488611820645,0.1756372494955902,0.04726772708748426,1225.825611414521,21244.296959158237
6.343171585792896,941.5644800230648,940.6451182176007,0.19388772834551918,0.0,0.22189034047580608,0.1756007608257812,0.047266939489154475,1225.798493547385,21252.801773630308
6.353176588294147,941.6622088025057,940.7419092595343,0.1940093739703027,0.0,0.22192590507653917,0.17556415982148593,0.04726615596689003,1225.7712901331042,21261.30074266489
6.3631815907953975,941.7600846053184,940.8388334669718,0.19413141034789252,0.0,0.2219615809735605,0.17552744542488766,0.04726537654575387,1225.7440004078837,21269.793876761385
6.373186593296648,941.85810897348,940.9358925406149,0.19425384096791087,0.0,0.22199736921230095,0.17549061658586101,0.04726460125102325,1225.7166236130752,21278.2811864162
6.383191595797899,941.9562834353538,941.0330881638837,0.19437666929656083,0.0,0.2220332708306274,0.17545367226181258,0.04726383010818883,1225.6891589950674,21286.762682122582
6.393196598299149,942.0546095060097,941.1304220033152,0.19449989877710955,0.0,0.22206928685899385,0.17541661141752957,0.04726306314295382,1225.6616058051798,21295.23837437041
6.4032016008004,942.1530886875368,941.2278957089537,0.19462353283038106,0.0,0.2221054183205956,0.17537943302502607,0.04726230038123305,1225.6339632995582,21303.708273646018
6.413206603301651,942.2517224693504,941.3255109147337,0.19474757485521738,0.0,0.22214166623151327,0.17534213606339855,0.04726154184915224,1225.6062307390746,21312.172390432013
6.423211605802901,942.3505123284938,941.4232692388542,0.1948720282289616,0.0,0.22217803160086402,0.17530471951867546,0.04726078757304703,1225.5784073892214,21320.6307352071
6.433216608304152,942.4494597299325,941.521172284145,0.19499689630790631,0.0,0.2222145154309416,0.1752671823836766,0.047260037579462365,1225.5504925200157,21329.08331844593
6.443221610805402,942.5485661268443,941.6192216384263,0.1951221824277565,0.0,0.22225111871736108,0.1752295236578689,0.047259291895151566,1225.522485405899,21337.530150618906
6.453226613306653,942.6478329608983,941.7174188748589,0.19524788990404363,0.0,0.22228784244918826,0.17519174234723672,0.04725855054707567,1225.4943853256489,21345.97124219208
6.463231615807904,942.7472616625382,941.8157655522908,0.19537402203259646,0.0,0.2223246876090869,0.1751538374641351,0.04725781356240265,1225.4661915622742,21354.406603626914
6.473236618309154,942.8468536512463,941.9142632155907,0.19550058208992432,0.0,0.2223616551734384,0.17511580802716972,0.04725708096850673,1225.4379034029357,21362.83624538022
6.483241620810405,942.9466103358179,942.0129133959824,0.19562757333368228,0.0,0.22239874611248706,0.175077653061052,0.04725635279296766,1225.409520138844,21371.260177903958
6.493246623311656,943.0465331146155,942.1117176113644,0.19575499900304438,0.0,0.22243596139045704,0.17503937159648206,0.04725562906357004,1225.3810410651777,21379.67841164511
6.503251625812906,943.1466233758298,942.2106773666303,0.19588286231913826,0.0,0.22247330196568785,0.1750009626700134,0.04725490980830269,1225.3524654809917,21388.090957045555
6.513256628314157,943.2468824977254,942.3097941539756,0.19601116648541578,0.0,0.22251076879075005,0.1749624253239369,0.04725419505535799,1225.323792689136,21396.497824541933
6.523261630815408,943.3473118488937,942.4090694532061,0.19613991468808026,0.0,0.22254836281257898,0.17492375860614767,0.047253484833131236,1225.2950219961633,21404.899024565508
6.533266633316658,943.4479127884873,942.5085047320317,0.19626911009644343,0.0,0.22258608497258608,0.17488496157003341,0.04725277917022003,1225.2661527122514,21413.294567542052
6.543271635817908,943.5486866664604,942.608101446361,0.19639875586331468,0.0,0.2226239362067805,0.1748460332743528,0.04725207809542373,1225.2371841511203,21421.684463891725
6.55327663831916,943.649634823801,942.7078610405872,0.19652885512538745,0.0,0.22266191744588967,0.1748069727831153,0.047251381637742805,1225.208115629948,21430.068724028963
6.56328164082041,943.7507585927574,942.8077849478685,0.19665941100359752,0.0,0.22270002961547114,0.1747677791654689,0.04725068982637834,1225.1789464692924,21438.447358362355
6.57328664332166,943.8520592970622,942.9078745904029,0.19679042660348853,0.0,0.22273827363602686,0.1747284514955862,0.047250002690731416,1225.1496759930137,21446.82037729455
6.583291645822912,943.9535382521508,943.0081313796975,0.19692190501557108,0.0,0.22277665042311512,0.1746889888525524,0.04724932026040263,1225.1203035281962,21455.187791222128
6.593296648324162,944.0551967653777,943.1085567168329,0.1970538493156754,0.0,0.2228151608874607,0.17464939032025517,0.047248642565191526,1225.0908284050702,21463.549610535538
6.603301650825412,944.1570361362271,943.2091519927234,0.1971862625653044,0.0,0.222853805935065,0.17460965498727443,0.04724796963509614,1225.061249956939,21471.905845618956
6.613306653326664,944.259057656521,943.3099185883696,0.19731914781197904,0.0,0.22289258646731377,0.17456978194677478,0.04724730150031246,1225.0315675201027,21480.256506850234
6.623311655827914,944.3612626106212,943.4108578751088,0.19745250808956846,0.0,0.22293150338108025,0.17452977029640238,0.04724663819123394,1225.0017804337854,21488.601604600764
6.633316658329164,944.4636522756313,943.5119712148588,0.19758634641863776,0.0,0.22297055756883352,0.17448961913817657,0.04724597973845105,1224.971888040062,21496.941149235434
6.643321660830415,944.5662279215913,943.6132599603577,0.1977206658067723,0.0,0.22300974991873967,0.17444932757838846,0.04724532617275083,1224.9418896837874,21505.275151112506
6.653326663331666,944.6689908116709,943.7147254553989,0.19785546924889733,0.0,0.22304908131476167,0.17440889472750165,0.047244677525116414,1224.9117847125276,21513.60362058357
6.663331665832916,944.7719422023598,943.8163690350631,0.19799075972761565,0.0,0.22308855263676444,0.17436831970004651,0.047244033826726546,1224.8815724764854,21521.926567993436
6.673336668334167,944.8750833436516,943.9181920259423,0.19812654021351003,0.0,0.22312816476060926,0.1743276016145263,0.04724339510895527,1224.8512523284378,21530.244003680065
6.683341670835418,944.9784154792296,944.0201957463652,0.19826281366547632,0.0,0.22316791855825763,0.17428673959331284,0.047242761403371435,1224.820823623661,21538.55593797452
6.693346673336668,945.0819398466439,944.1223815066119,0.19839958303101576,0.0,0.2232078148978624,0.17424573276255573,0.04724213274173825,1224.7902857198678,21546.862381200855
6.703351675837919,945.1856576774882,944.2247506091305,0.1985368512465434,0.0,0.22324785464386385,0.17420458025208616,0.047241509156012995,1224.7596379771435,21555.163343676104
6.71335667833917,945.2895701975763,944.3273043487463,0.19867462123771354,0.0,0.22328803865709118,0.17416328119531527,0.047240890678346525,1224.7288797578717,21563.458835710157
6.72336168084042,945.3936786271088,944.4300440128682,0.19881289591969342,0.0,0.2233283677948478,0.17412183472914908,0.047240277341082965,1224.698010426678,21571.748867605733
6.7333666833416705,945.4979841808423,944.5329708816901,0.19895167819746673,0.0,0.22336884291100595,0.1740802399938937,0.04723966917675929,1224.6670293503628,21580.03344965831
6.743371685842921,945.6024880682555,944.6360862283921,0.19909097096613446,0.0,0.22340946485610033,0.1740384961331617,0.047239066218104996,1224.6359358978366,21588.3125921561
6.753376688344172,945.7071914937112,944.7393913193348,0.19923077711120515,0.0,0.22345023447741844,0.1739966022937817,0.047238468498041745,1224.604729440058,21596.58630537994
6.7633816908454225,945.8120956566132,944.8428874142497,0.19937109950886353,0.0,0.22349115261908467,0.17395455762571438,0.04723787604968294,1224.573409349974,21604.854599603277
6.773386693346673,945.9172017515659,944.9465757664296,0.19951194102626524,0.0,0.22353222012215157,0.17391236128196108,0.04723728890633352,1224.5419750024582,21613.117485092123
6.783391695847924,946.0225109685291,945.0504576229135,0.19965330452182886,0.0,0.22357343782469125,0.1738700124184725,0.047236707101489514,1224.510425774246,21621.374972104997
6.7933966983491745,946.1280244929692,945.1545342246687,0.19979519284550099,0.0,0.2236148065618776,0.17382751019406625,0.04723613066883776,1224.4787610438775,21629.62707089287
6.803401700850425,946.2337435060067,945.2588068067681,0.19993760883901932,0.0,0.2236563271660683,0.17378485377034486,0.04723555964225557,1224.4469801916414,21637.873791699152
6.813406703351676,946.3396691845667,945.3632765985678,0.20008055533620347,0.0,0.2236980004668955,0.17374204231160528,0.04723499405581044,1224.4150825995116,21646.11514475962
6.8234117058529264,946.4458027015214,945.4679448238787,0.2002240351632145,0.0,0.22373982729134648,0.173699074984758,0.047234433943759715,1224.3830676510913,21654.351140302417
6.833416708354177,946.5521452258345,945.5728127011371,0.20036805113881842,0.0,0.2237818084638456,0.17365595095924485,0.04723387934055029,1224.3509347315555,21662.581788547985
