z,T,t,fs,fl,x,y,w,rhob,p
0.0,634.4167936593323,505.0,0.0,0.0,0.16090768164861916,0.2369003004261946,0.04773139917378338,1268.0,14330.0
0.010005002501250625,642.8903980805586,518.0167942414671,2.6778946591578498e-05,0.0,0.160915989354913,0.23689199271971664,0.047731399173492235,1267.9942093204293,14341.232463873504
0.02001000500250125,651.0474227146977,530.5281467453824,5.7610421106637224e-05,0.0,0.16092555428780927,0.23688242778640214,0.04773139917283086,1267.987542322017,14352.690324575517
0.030015007503751877,658.9025156975683,542.55892186734,9.267725601395031e-05,0.0,0.16093643316760153,0.23687154890572204,0.04773139917142687,1267.9799594688657,14364.36552975094
0.0400200100050025,666.4694371607757,554.132346180723,0.00013213560232230696,0.0,0.16094867443686775,0.23685930763468155,0.04773139916862117,1267.9714269945202,14376.250272338051
0.05002501250625312,673.7611267137494,565.2701461925209,0.00017611620596981055,0.0,0.16096231865630492,0.23684566341188287,0.047731399163305495,1267.961916625869,14388.336986251928
0.060030015007503754,680.7897671064932,575.9926761448063,0.00022472602646092264,0.0,0.16097739900668748,0.23683058305542604,0.04773139915370007,1267.951405233013,14400.618340997054
0.07003501750875438,687.5668445969137,586.3190371793379,0.00027805009142265776,0.0,0.1609939418639611,0.23681404018763558,0.047731399137069336,1267.9398744280757,14413.087235046183
0.080040020010005,694.1032001797741,596.2671778644134,0.0003361532896757072,0.0,0.16101196735519646,0.23679601467887992,0.047731399109363866,1267.927310177276,14425.736790204768
0.09004502251125562,700.4090742493479,605.8539813143292,0.0003990821096915113,0.0,0.16103148989752522,0.23677649210835536,0.047731399064776775,1267.9137024247589,14438.560346653097
0.10005002501250625,706.4941517727127,615.0953517052615,0.0004668664807982431,0.0,0.16105251876889679,0.23675546319300894,0.04773139899523775,1267.8990446941757,14451.55145622403
0.11005502751375687,712.3676021530038,624.0062900521823,0.0005395214881216437,0.0,0.1610750586396076,0.23673292325564907,0.0477313988898431,1267.8833337175333,14464.70387610622
0.12006003001500751,718.0381133287818,632.6009588121386,0.0006170489269106543,0.0,0.1610991100539369,0.23670887174290242,0.0477313987342121,1267.8665690987325,14478.01156355053
0.13006503251625812,723.5139237374556,640.8927418792762,0.0006994387843512733,0.0,0.1611246698892422,0.23668331176567875,0.04773139850979127,1267.8487529927586,14491.468670351636
0.14007003501750875,728.8028540588621,648.8943033514319,0.0007866706732159903,0.0,0.16115173180011239,0.23665624965457796,0.04773139819315917,1267.8298897952886,14505.069536250026
0.15007503751875936,733.912334297457,656.6176375252899,0.0008787150931869322,0.0,0.16118028660903713,0.23662769456876467,0.047731397755305084,1267.8099858695446,14518.808683338673
0.16008004002001,738.8494272705315,664.0741121623032,0.0009755345584025101,0.0,0.16121032265555205,0.23659765814635056,0.04773139716088171,1267.7890493020643,14532.68081129703
0.17008504252126064,743.6208527313656,671.2745123194771,0.0010770846800015259,0.0,0.16124182613148028,0.2365661541687216,0.04773139636752379,1267.7670896682387,14546.680791488983
0.18009004502251125,748.2330093927375,678.2290801142855,0.001183315135623696,0.0,0.16127478138115556,0.23653319825992059,0.04773139532522377,1267.7441178223212,14560.803661241816
0.19009504752376188,752.6919937611289,684.9475486922188,0.001294170516899552,0.0,0.16130917116381746,0.23649880762387415,0.047731393975735184,1267.7201457138428,14575.04461905183
0.2001000500250125,757.0036175180713,691.43917341919,0.0014095910973695221,0.0,0.16134497689138105,0.23646300080628851,0.04773139225204282,1267.6951862212632,14589.399019966733
0.21010505252626313,761.173425566532,697.7127638657031,0.0015295135483858562,0.0,0.16138217885021255,0.23642579747264147,0.04773139007799616,1267.6692529969646,14603.862369963406
0.22011005502751374,765.2067115453548,703.7767112626811,0.0016538715583813638,0.0,0.1614207563929918,0.23638721821613543,0.04773138736801657,1267.6423603331802,14618.430321139002
0.23011505752876438,769.1085312133813,709.639012182002,0.0017825963773291306,0.0,0.16146068810742703,0.23634728438884028,0.04773138402687295,1267.6145230441368,14633.098667662463
0.24012006003001501,772.8837162093187,715.3072926324394,0.001915617317067051,0.0,0.1615019519714294,0.23630601794648626,0.04773137994963024,1267.5857563578359,14647.863341048147
0.25012506253126565,776.5368871409067,720.7888308376492,0.0020528621939944042,0.0,0.16154452549053683,0.23626344131109883,0.047731375021741615,1267.556075820376,14662.720405350909
0.26013006503251623,780.0724647620082,726.0905766874728,0.0021942577131139757,0.0,0.16158838581720725,0.23621957725181095,0.04773136911921602,1267.5254972129999,14677.666053141747
0.27013506753376687,783.4946800718627,731.2191692791099,0.0023397298095125833,0.0,0.16163350985699843,0.2361744487788542,0.047731362108888176,1267.4940364784006,14692.696601841053
0.2801400700350175,786.8075852063843,736.1809556155071,0.0024892039545710066,0.0,0.1616798743639723,0.2361280790484449,0.04773135384887803,1267.4617096547581,14707.808489173125
0.29014507253626814,790.0150629276186,740.9820068794227,0.002642605420106079,0.0,0.1617274560231113,0.23608049128070355,0.04773134418912135,1267.4285328189142,14722.998269202782
0.3001500750375187,793.1208347704747,745.6281324164753,0.0027998595108095757,0.0,0.16177623152295362,0.2360317086873939,0.04773133297196238,1267.394522036433,14738.26260901435
0.31015507753876936,796.1284693116432,750.1248938233392,0.002960891769204477,0.0,0.16182617761981044,0.23598175440815813,0.04773132003286881,1267.359693317676,14753.598285049715
0.32016008004002,799.0413904119796,754.4776188958862,0.0031256281513102366,0.0,0.1618772711929774,0.2359306514558165,0.047731305201239776,1267.3240625802573,14769.002179183944
0.33016508254127064,801.8628842425453,758.6914135271383,0.003293995179715834,0.0,0.16192948929296017,0.23587842266866885,0.04773128830124012,1267.2876456164047,14784.471275436152
0.3401700850425213,804.5961054983962,762.7711722301856,0.00346592007960328,0.0,0.16198280918444805,0.23582509066807558,0.04773126915267687,1267.2504580640234,14800.002657088176
0.35017508754377186,807.2440842717002,766.7215896546337,0.00364133089041957,0.0,0.16203720838179544,0.23577067782357594,0.04773124757194752,1267.2125153830696,14815.593503101825
0.3601800900450225,809.8097321791511,770.5471708397487,0.0038201565611614904,0.0,0.1620926646794185,0.23571520622309047,0.047731223372988005,1267.1738328354684,14831.241084895182
0.37018509254627313,812.2958475976604,774.2522399876268,0.004002327035685942,0.0,0.1621491561790982,0.2356586976462178,0.04773119636822088,1267.134425467185,14846.942763646424
0.38019009504752377,814.7051208491868,777.8409491093821,0.004187773323823511,0.0,0.16220666131288808,0.23560117354193366,0.04773116636951483,1267.0943080933746,14862.695987491235
0.39019509754877435,817.0401396321218,781.3172870153413,0.004376427554346411,0.0,0.16226515886037363,0.2355426550119249,0.0477311331891234,1267.0534952874427,14878.498288358125
0.400200100050025,819.3033936494683,784.6850869830462,0.004568223022255194,0.0,0.16232462796414024,0.23548316279569448,0.047731096640590664,1267.0120013713183,14894.347279307614
0.4102051025512756,821.497278629706,787.9480334271711,0.004763094232236046,0.0,0.16238504814403681,0.23542271725685895,0.047731056539638675,1266.9698404065443,14910.240652258426
0.42021010505252626,823.6241008123903,791.1096692715657,0.004960976925136671,0.0,0.1624463993061215,0.2353613383747289,0.047731012704999694,1266.9270261890076,14926.176175206234
0.4302151075537769,825.6860810861884,794.1734027359817,0.005161808097713827,0.0,0.16250866174946726,0.23529904573799174,0.04773096495918816,1266.8835722450942,14942.15168961083
0.4402201100550275,827.6853585082807,797.1425131174665,0.005365526022138561,0.0,0.16257181617285954,0.23523585853847898,0.047730913129236156,1266.8394918278739,14958.165108212756
0.4502251125562781,829.6239936757831,800.0201563144993,0.005572070260025507,0.0,0.1626358436797508,0.23517179556664508,0.047730857047378804,1266.7947979144435,14974.214412893201
0.46023011505752875,831.5039724326049,802.8093708525251,0.005781381662556376,0.0,0.16270072577880934,0.23510687521138657,0.04773079655163579,1266.7495032062193,14990.297652142614
0.4702351175587794,833.3272090401236,805.5130830424964,0.005993402371834749,0.0,0.1627664443848076,0.23504111545949122,0.04773073148634569,1266.7036201289372,15006.412938914711
0.48024012006003003,835.0955488955765,808.1341114114041,0.006208075824319414,0.0,0.1628329818201284,0.23497453389445017,0.047730661702668445,1266.6571608321874,15022.55844881772
0.4902451225612806,836.8107715388077,810.6751715657189,0.006425346742976128,0.0,0.16290032081267716,0.23490714769879634,0.047730587058982796,1266.610137191327,15038.732417975087
0.5002501250625313,838.4745935506716,813.1388808655744,0.006645161125242977,0.0,0.162968444492426,0.23483897365776207,0.047730507421204195,1266.56256081026,15054.933140910243
0.5102551275637819,840.0886710083189,815.527762390695,0.006867466234676223,0.0,0.16303733638907397,0.23477002816180131,0.04773042266307449,1266.5144430234004,15071.15896877898
0.5202601300650325,841.6546017514578,817.8442485983682,0.007092210592329664,0.0,0.1631069804295856,0.2347003272092064,0.047730332666406236,1266.4657948976721,15087.408307728143
0.5302651325662832,843.1739279797468,820.0906854821482,0.007319343956434305,0.0,0.16317736093198948,0.2346298864123849,0.04773023732120311,1266.4166272369678,15103.679616885856
0.5402701350675337,844.6481384991772,822.2693361705213,0.007548817305352929,0.0,0.16324846260016918,0.23455872100312805,0.04773013652575295,1266.3669505858868,15119.971406629951
0.5502751375687843,846.0786706309044,824.3823839906466,0.007780582824810529,0.0,0.16332027051996967,0.23448684583655485,0.0477300301867082,1266.3167752325403,15136.282237137666
0.560280140070035,847.466912271802,826.4319357569498,0.00801459388837493,0.0,0.16339277015313386,0.23441427539717236,0.04772991821908027,1266.2661112127694,15152.610716748883
0.5702851425712856,848.8142039848381,828.4200250944816,0.008250805033711301,0.0,0.16346594732986575,0.23434102380626412,0.04772980054616361,1266.2149683152377,15168.955500255744
0.5802901450725363,850.1218407647466,830.348615250192,0.00848917194375231,0.0,0.16353978824291848,0.23426710482775392,0.04772967709945907,1266.1633560854602,15185.315287472022
0.5902951475737869,851.3910736114736,832.2196015995993,0.00872965143033542,0.0,0.1636142794424356,0.23419253187330738,0.047729547818583525,1266.1112838292952,15201.688821962229
0.6003001500750375,852.6231113842521,834.0348145781318,0.008972201408120753,0.0,0.1636894078276892,0.23411731801047359,0.047729412651079765,1266.0587606184756,15218.074889459307
0.6103051525762881,853.8191224402289,835.7960222718456,0.009216780871532526,0.0,0.16376516063975197,0.23404147596988986,0.04772927155222187,1266.0057952954917,15234.472316464313
0.6203101550775387,854.9802360186762,837.5049326098592,0.00946334987647197,0.0,0.16384152545565958,0.2339650181510033,0.04772912448483132,1265.9523964774423,15250.879969076042
0.6303151575787894,856.1075436805827,839.1631956360484,0.009711869518742536,0.0,0.16391849018151392,0.23388795662882322,0.047728971419049034,1265.898572560577,15267.296751741544
0.64032016008004,857.202100850918,840.7724059318604,0.009962301907643863,0.0,0.16399604304404275,0.2338103031621852,0.04772881233205627,1265.844331725851,15283.721605876095
0.6503251625812906,858.2649281198414,842.3341046630718,0.010214610144497828,0.0,0.16407417258370777,0.23373206920047943,0.04772864720781597,1265.7896819434281,15300.153508706222
0.6603301650825413,859.2970123709057,843.8497813566964,0.010468758304725332,0.0,0.1641528676489236,0.23365326588927496,0.0477284760368251,1265.7346309764207,15316.591472272501
0.6703351675837919,860.299308121042,845.3208759975298,0.01072471141596761,0.0,0.1642321173889967,0.23357390407718598,0.04772829881580624,1265.6791863854494,15333.03454219554
0.6803401700850426,861.2727389988214,846.7487813039528,0.010982437459299185,0.0,0.16431191187470146,0.23349399369510498,0.047728115547405935,1265.6233550957375,15349.481796538204
0.6903451725862931,862.2183646236767,848.1350799231451,0.011243250723789384,0.0,0.16439265885194304,0.23341312700221298,0.047727926239678024,1265.566852909836,15365.932346086505
0.7003501750875437,863.1372620869865,849.4813750001674,0.011508903453776144,0.0,0.16447490193857142,0.2333307603879132,0.047727730904102816,1265.5093009287295,15382.385341853249
0.7103551775887944,864.0298935076452,850.788393469432,0.011776382839324912,0.0,0.16455770647636384,0.2332478285215548,0.047727529558285485,1265.4513506521016,15398.839958141527
0.720360180090045,864.897060927737,852.0573433200851,0.012045598333106542,0.0,0.16464104439679125,0.23316435948638786,0.04772732222551546,1265.39302167269,15415.295392848557
0.7303651825912957,865.7395477817993,853.2894034229221,0.01231652084196098,0.0,0.16472490670041728,0.23308036229939602,0.04772710893355121,1265.334320296837,15431.750871601625
0.7403701850925463,866.558112316775,854.485714306845,0.01258912178555794,0.0,0.16480928455056523,0.23299584581744204,0.04772688971432374,1265.2752527222808,15448.205646783821
0.7503751875937968,867.353488563887,855.6473796601321,0.012863373360217666,0.0,0.16489416935490564,0.23291081865549562,0.047726664603644726,1265.2158249809477,15464.658996610648
0.7603801900950475,868.1263871232738,856.775467547833,0.013139248521260227,0.0,0.16497955275974457,0.23282528919217654,0.04772643364094003,1265.156042942622,15481.110224359218
0.7703851925962981,868.8774959060389,857.8710115623716,0.013416720966129716,0.0,0.1650654266445587,0.23273926557505542,0.04772619686899005,1265.0959123184534,15497.55865763529
0.7803901950975487,869.6074810120342,858.9350121780674,0.01369576511237538,0.0,0.1651517831149206,0.2326527557275543,0.04772595433365399,1265.035438665565,15514.003647486425
0.7903951975987994,870.3169874800018,859.9684379095323,0.013976356079135731,0.0,0.16523861449653207,0.23256576735475393,0.047725706083618334,1264.9746273909223,15530.44456764428
0.80040020010005,871.0066399187907,860.9722262878842,0.014258469672060866,0.0,0.1653259133303417,0.23247830794812968,0.047725452170164925,1264.9134837544634,15546.88081388875
0.8104052026013007,871.6770432248761,861.9472849661879,0.01454208236482864,0.0,0.16541367236660007,0.23239038479134594,0.047725192646932806,1264.8520128729665,15563.311803313105
0.8204102051025512,872.3287833075719,862.8944928346828,0.014827171279819914,0.0,0.16550188455866086,0.23230200496630868,0.04772492756968719,1264.7902197241017,15579.736973574547
0.8304152076038018,872.9624276958762,863.8147009550801,0.015113714172336529,0.0,0.16559054305789878,0.23221317535811453,0.04772465699610915,1264.7281091497289,15596.1557822676
0.8404202101050525,873.5785260864798,864.7087334045377,0.015401689416463105,0.0,0.16567964120914788,0.2321239026594867,0.04772438098559663,1264.6656858588444,15612.567706357002
0.8504252126063031,874.1776110131825,865.5773883019629,0.015691075986285077,0.0,0.1657691725446959,0.2320341933766526,0.04772409959906148,1264.6029544315315,15628.97224147424
0.8604302151075538,874.7601984304179,866.4214387029592,0.015981853439652395,0.0,0.16585913077908304,0.23194405383442682,0.04772381289874362,1264.5399193223702,15645.368901303118
0.8704352176088044,875.3267882013711,867.2416333494504,0.016274001904961963,0.0,0.16594950980485068,0.23185349018035484,0.04772352094803974,1264.4765848631998,15661.757217065757
0.880440220110055,875.8778646285566,868.0386974824601,0.01656750206612232,0.0,0.16604030368772887,0.23176250838941892,0.04772322381133558,1264.4129552662803,15678.13673695913
0.8904452226113057,876.4138970218077,868.8133337102441,0.016862335145816837,0.0,0.1661315066613025,0.2316711142692708,0.04772292155384502,1264.3490346278206,15694.507025547573
0.9004502251125562,876.9353401733642,869.5662227351352,0.017158482891771864,0.0,0.1662231131226216,0.23157931346452773,0.04772261424146327,1264.2848269308693,15710.867663253894
0.9104552276138069,877.4426347715336,870.2980239869204,0.01745592756500161,0.0,0.16631511762843346,0.23148711146045395,0.04772230194062901,1264.220336047779,15727.218245915208
0.9204602301150575,877.936207911661,871.0093764021449,0.01775465192424149,0.0,0.16640751489023528,0.2313945135878229,0.04772198471819058,1264.1555657435024,15743.558384230235
0.9304652326163081,878.4164735563763,871.7008991260253,0.01805463921193918,0.0,0.1665002997698202,0.23130152502729362,0.04772166264128298,1264.090519678549,15759.887703259865
0.9404702351175588,878.8838329193244,872.3731920983365,0.018355873142834437,0.0,0.16659346727563376,0.23120815081298224,0.047721335777213644,1264.0252014113976,15776.20584200963
0.9504752376188094,879.3386748604405,873.0268366560784,0.018658337891912978,0.0,0.16668701255894158,0.2311143958362252,0.04772100419335414,1263.959614401036,15792.512452998004
0.9604802401200601,879.7813763337483,873.6623962145178,0.018962018080168043,0.0,0.16678093090932414,0.23102026485002175,0.04772066795703984,1263.89376200999,15808.807201765729
0.9704852426213106,880.2123027628842,874.2804168387562,0.01926689876284229,0.0,0.1668752177509475,0.23092576247270413,0.04772032713547714,1263.827647506811,15825.089766462945
0.9804902451225612,880.6318083601835,874.8814277298777,0.019572965419632497,0.0,0.16696986863944763,0.23083089319099798,0.04771998179565602,1263.7612740681489,15841.359837496879
0.9904952476238119,881.0402365162215,875.4659418165522,0.019880203942053306,0.0,0.16706487925794009,0.23073566136396206,0.04771963200426992,1263.694644781439,15857.617117101547
1.0005002501250626,881.4379201668847,876.0344563122655,0.020188600621456516,0.0,0.16716024541323932,0.23064007122672292,0.047719277827643,1263.6277626474525,15873.861318931145
1.0105052526263132,881.8251820988115,876.5874531794366,0.020498142139247378,0.0,0.1672559630327632,0.23054412689352674,0.04771891933166107,1263.5606305823765,15890.092167720099
1.0205102551275638,882.2023352465455,877.1253995806961,0.020808815557290077,0.0,0.16735202816149988,0.23044783236073166,0.0477185565817074,1263.4932514198508,15906.309398951393
1.0305152576288144,882.5696830465312,877.6487484151054,0.02112060830596327,0.0,0.16744843695825437,0.2303511915105266,0.04771818964260744,1263.4256279135218,15922.512758462464
1.040520260130065,882.9275197364755,878.1579387718815,0.021433508174177718,0.0,0.1675451856925061,0.23025420811404065,0.047717818578576994,1263.3577627391726,15938.702002110274
1.0505252626313157,883.2761306061225,878.6533963108516,0.02174750330117543,0.0,0.1676422707418206,0.23015688583389934,0.04771744345317166,1263.2896584964678,15954.876895488898
1.0605302651325663,883.6157922939151,879.1355337114522,0.022062582166418182,0.0,0.16773968858867574,0.23005922822737188,0.04771706432924441,1263.2213177111178,15971.03721359688
1.070535267633817,883.946773082008,879.6047511188779,0.02237873357940579,0.0,0.16783743581727104,0.22996123874953825,0.04771668126890891,1263.1527428370596,15987.182740506274
1.0805402701350675,884.2693331415674,880.06143651534,0.02269594667134322,0.0,0.16793550911091104,0.22986292075588338,0.04771629433350319,1263.0839362582383,16003.313269085627
1.090545272636318,884.5837247587797,880.5059660621561,0.02301421088748584,0.0,0.1680339052496006,0.22976427750467954,0.047715903583555354,1263.0149002902458,16019.428600743666
1.1005502751375686,884.8901926144447,880.938704521883,0.023333515977246807,0.0,0.16813262110695495,0.22966531216006145,0.04771550907875931,1262.9456371824438,16035.528545114972
1.1105552776388194,885.1889740244965,881.3600056215937,0.023653851985755724,0.0,0.16823165364756054,0.22956602779465,0.047715110877951036,1262.8761491197772,16051.612919788136
1.12056028014007,885.4802991401077,881.7702123553734,0.023975209246960043,0.0,0.16833099992481337,0.22946642739169867,0.047714709039083744,1262.8064382242533,16067.681550077572
1.1305652826413206,885.7643911735794,882.1696573252384,0.024297578375610505,0.0,0.16843065707841673,0.22936651384758375,0.04771430361920966,1262.7365065566635,16083.734268767583
1.1405702851425712,886.0414666365266,882.5586631002246,0.02462095025865591,0.0,0.16853062233170124,0.2292662899744767,0.04771389467446745,1262.666356118437,16099.770915843477
1.1505752876438218,886.3117355380082,882.9375425152828,0.024945316048181405,0.0,0.16863089298942197,0.2291657585025381,0.04771348226006798,1262.5959888531618,16115.791338266057
1.1605802901450726,886.5754015590437,883.3065989346666,0.025270667155249008,0.0,0.16873146643583453,0.22906492208183163,0.04771306643027952,1262.5254066479065,16131.79538977153
1.1705852926463232,886.8326622724851,883.6661265830171,0.025596995241811353,0.0,0.16883234013218276,0.2289637832848338,0.04771264723842272,1262.4546113349675,16147.782930623122
1.1805902951475737,887.0837093377027,884.0164108385625,0.02592429221358037,0.0,0.16893351161448214,0.22886234460864702,0.04771222473686537,1262.3836046934066,16163.753827390105
1.1905952976488243,887.3287286621079,884.3577284765587,0.02625255021420391,0.0,0.16903497849170648,0.22876060847680768,0.04771179897701439,1262.3123884503082,16179.707952762472
1.200600300150075,887.5679005733908,884.69034792862,0.026581761618946678,0.0,0.16913673844382454,0.2286585772412474,0.04771137000931207,1262.2409642821412,16195.645185354431
1.2106053026513257,887.8014000121545,885.0145295723916,0.026911919027459544,0.0,0.16923878921955965,0.22855625318453493,0.04771093788323865,1262.1693338163257,16211.565409486713
1.2206103051525763,888.0293966925066,885.3305259731688,0.02724301525782126,0.0,0.16934112863454123,0.2284536385217243,0.047710502647312,1262.097498632521,16227.468515003353
1.2306153076538269,888.2520552392008,885.6385820903562,0.02757504334151677,0.0,0.16944375456974486,0.22835073540191314,0.04771006434908491,1262.025460263709,16243.35439711351
1.2406203101550775,888.4695353593955,885.9389355355404,0.027907996516915036,0.0,0.1695466649694748,0.22824754591026403,0.04770962303515113,1261.9532201976083,16259.222956197153
1.250625312656328,888.6819920012761,886.231816810804,0.028241868223241914,0.0,0.16964985783949962,0.22814407206987275,0.04770917875115144,1261.8807798779817,16275.074097625213
1.2606303151575788,888.8895754854946,886.5174495063276,0.02857665209565573,0.0,0.16975333124552713,0.2280403158432945,0.04770873154177604,1261.8081407057018,16290.90773160863
1.2706353176588294,889.0924316369783,886.7960504984508,0.028912341960270302,0.0,0.16985708331166452,0.22793627913408696,0.0477082814507689,1261.7353040398289,16306.723773047343
1.28064032016008,889.290701940547,887.0678301831902,0.02924893182812081,0.0,0.16996111221855648,0.22783196378867904,0.04770782852093897,1261.6622711989226,16322.52214135497
1.2906453226613306,889.484523671507,887.3329926722855,0.02958641589014904,0.0,0.1700654162018368,0.22772737159792403,0.047707372794167965,1261.5890434621313,16338.302760310156
1.3006503251625812,889.6740300051321,887.5917359576583,0.02992478851305866,0.0,0.1701699935508469,0.22762250429838443,0.04770691431141501,1261.5156220700892,16354.06555793011
1.310655327663832,889.8593501500532,887.8442521114744,0.030264044234111113,0.0,0.17027484260703163,0.22751736357394295,0.04770645311272806,1261.4420082260494,16369.810466319866
1.3206603301650826,890.0406094780378,888.090727480733,0.030604177756034776,0.0,0.1703799617623715,0.2274119510573784,0.04770598923725628,1261.368203096991,16385.5374215259
1.3306653326663331,890.2179296315131,888.3313428485711,0.030945183942859503,0.0,0.1704853494580978,0.22730626833165574,0.04770552272325863,1261.294207814524,16401.246363413138
1.3406703351675837,890.3914286251178,888.5662735865999,0.03128705781598289,0.0,0.17059100418348017,0.227200316931144,0.04770505360811213,1261.220023475746,16416.93723554834
1.3506753376688343,890.5612209709353,888.7956898424983,0.031629794549176395,0.0,0.1706969244742911,0.22709409834316133,0.047704581928327286,1261.1456511443287,16432.609985059935
1.360680340170085,890.7274177850655,889.0197566997007,0.031973389464367744,0.0,0.1708031089115085,0.2269876140092802,0.04770410771956025,1261.0710918514374,16448.264562517426
1.3706853426713357,890.8901268761521,889.2386343101246,0.032317838028185955,0.0,0.17090955612025177,0.2268808653263967,0.0477036310166215,1260.9963465964836,16463.90092182949
1.3806903451725863,891.0494528485316,889.4524780486485,0.03266313584784198,0.0,0.17101626476851597,0.22677385364800517,0.047703151853489195,1260.9214163480217,16479.51902012764
1.3906953476738368,891.2054972086013,889.6614386723286,0.03300927866683723,0.0,0.1711232335658542,0.22666658028552505,0.04770267026332464,1260.8463020446868,16495.11881764741
1.4007003501750874,891.3583584530205,889.8656624524793,0.033356262361444435,0.0,0.17123046126229655,0.22655904650938988,0.047702186278483966,1260.7710045959614,16510.700277628137
1.4107053526763382,891.5081321477811,890.0652912931123,0.03370408293757157,0.0,0.17133794664738608,0.22645125355001705,0.0477016999305281,1260.6955248828583,16526.26336622228
1.4207103551775888,891.6549110283406,890.2604628807087,0.034052736526670374,0.0,0.1714456885489246,0.2263432025990731,0.04770121125023941,1260.6198637588166,16541.808052384233
1.4307153576788394,891.7987850869245,890.4513108148305,0.034402219382186794,0.0,0.17155368583188407,0.22623489481057094,0.04770072026763583,1260.544022050474,16557.334307772548
1.44072036018009,891.9398416448039,890.6379647163042,0.034752527876660305,0.0,0.17166193739751606,0.22612633130176696,0.047700227011981455,1260.4680005583034,16572.84210666728
1.4507253626813406,892.078165431877,890.820550346254,0.03510365849847956,0.0,0.1717704421823578,0.22601751315416388,0.04769973151179994,1260.3918000573183,16588.33142588061
1.4607303651825914,892.2138386738122,890.9991897363556,0.035455607848277226,0.0,0.17187919915712782,0.225908441414625,0.04769923379489081,1260.3154212978643,16603.80224466057
1.470735367683842,892.3469411644465,891.1740012970907,0.03580837263596433,0.0,0.17198820732581774,0.22579911709629086,0.04769873388834231,1260.2388650062653,16619.254544609743
1.4807403701850925,892.4775503282531,891.3450999111889,0.036161949678195915,0.0,0.1720974657249153,0.22568954117936246,0.047698231818541895,1260.1621318853786,16634.68830961385
1.490745372686343,892.6057412996904,891.5125970521706,0.03651633589505885,0.0,0.17220697342239136,0.22557971461212492,0.04769772761119223,1260.0852226153186,16650.103525754486
1.5007503751875937,892.7315869950158,891.6766008916383,0.03687152830707917,0.0,0.17231672951678415,0.22546963831187186,0.04769722129132576,1260.0081378541138,16665.50018122973
1.5107553776888443,892.8551581716773,891.8372163880473,0.03722752403277628,0.0,0.17242673313645096,0.22535931316566124,0.047696712883315937,1259.9308782382404,16680.878266287003
1.520760380190095,892.9765234897276,891.9945453784661,0.037584320286112305,0.0,0.17253698343878762,0.22524874003110348,0.047696202410889614,1259.8534443831809,16696.23777315431
1.5307653826913457,893.0957495830309,892.1486866848787,0.037941914373478706,0.0,0.17264747960930807,0.225137919737292,0.04769568989714293,1259.775836884085,16711.578695962755
1.5407703851925962,893.2129011187071,892.2997362029575,0.038300303691202416,0.0,0.17275822086088208,0.22502685308557374,0.04769517536455412,1259.698056316315,16726.90103068066
1.5507753876938468,893.3280408472183,892.4477869768929,0.038659485723468466,0.0,0.17286920643309983,0.22491554085019086,0.04769465883499375,1259.620103235901,16742.204775056718
1.5607803901950974,893.4412296646984,892.592929292414,0.039019458039668276,0.0,0.17298043559146234,0.22480398377909938,0.047694140329739246,1259.5419781801238,16757.489928552128
1.5707853926963482,893.5525266721928,892.7352507651909,0.03938021829187429,0.0,0.17309190762661067,0.22469218259474935,0.04769361986948893,1259.4636816680654,16772.7564922762
1.5807903951975988,893.6619892246496,892.8748364139695,0.03974176421277376,0.0,0.1732036218536944,0.22458013799472273,0.04769309747437305,1259.3852142010646,16788.004468931726
1.5907953976988494,893.769672978479,893.0117687315624,0.04010409361365888,0.0,0.1733155776117584,0.22446785065235414,0.047692573163964816,1259.3065762631577,16803.233862761936
1.6008004002001,893.8756319494528,893.1461277711952,0.040467204381925616,0.0,0.17342777426297967,0.22435532121750287,0.047692046957294995,1259.2277683216246,16818.444679488573
1.6108054027013505,893.9799185615665,893.2779912193968,0.040831094478978064,0.0,0.17354021119202814,0.22424255031720008,0.04769151887286413,1259.1487908274526,16833.636926258623
1.6208104052026013,894.082583687692,893.4074344566651,0.04119576193850548,0.0,0.17365288780554058,0.22412953855618065,0.047690988928652076,1259.0696442157107,16848.8106115986
1.630815407703852,894.1836766982055,893.5345306299766,0.041561204864377775,0.0,0.17376580353147916,0.2240162865175327,0.04769045714213062,1258.9903289060132,16863.965745362224
1.6408204102051025,894.2832455098909,893.6593507256888,0.04192742142851612,0.0,0.17387895781848234,0.22390279476335512,0.04768992353027652,1258.9108453029883,16879.102338678193
1.650825412706353,894.3813366264205,893.7819636299045,0.04229440986914739,0.0,0.1739923501353326,0.22378906383529626,0.04768938810958192,1258.8311937966596,16894.22040390586
1.6608304152076037,894.4779951754548,893.9024361838003,0.04266216848920972,0.0,0.17410597997047034,0.22367509425504598,0.047688850896063784,1258.7513747627954,16909.31995459406
1.6708354177088545,894.5732649553901,894.0208332532818,0.04303069565429467,0.0,0.17421984683136704,0.22356088652497083,0.04768831190527706,1258.6713885633646,16924.401005432002
1.680840420210105,894.667188475597,894.1372177889474,0.0433999897908853,0.0,0.1743339502439886,0.2234464411286578,0.04768777115232563,1258.591235546919,16939.463572206198
1.6908454227113556,894.7598069897244,894.2516508757385,0.04377004938491457,0.0,0.1744482897523558,0.2233317585313592,0.04768722865187127,1258.5109160489137,16954.507671763644
1.7008504252126062,894.8511605334626,894.3641917892048,0.04414087298010508,0.0,0.174562864918039,0.223216839180505,0.04768668441814418,1258.4304303920694,16969.533321971467
1.7108554277138568,894.9412879648688,894.4748980555629,0.04451245917617789,0.0,0.17467767531961254,0.2231016835062555,0.047686138464954765,1258.3497788867685,16984.54054167487
1.7208604302151076,895.0302269978063,894.5838255015124,0.04488480662738053,0.0,0.17479272055220688,0.22298629192195552,0.047685590805703094,1258.2689618313752,16999.52935066121
1.7308654327163582,895.1180142312251,894.6910282978685,0.04525791404120683,0.0,0.17490800022711853,0.22287066482452947,0.047685041453387075,1258.187979512521,17014.49976962776
1.7408704352176088,895.2046851865549,894.796559015232,0.04563178017672232,0.0,0.17502351397130042,0.22275480259499794,0.04768449042061373,1258.1068322054703,17029.45182014309
1.7508754377188593,895.2902743409268,894.9004686734525,0.046006403843080614,0.0,0.17513926142691075,0.22263870559893545,0.047683937719609035,1258.0255201744465,17044.38552461239
1.76088044022011,895.3748151546324,895.0028067825264,0.046381783898309936,0.0,0.17525524225094347,0.22252237418684487,0.04768338336222599,1257.9440436729005,17059.300906247583
1.7708854427213607,895.4583401003879,895.1036213861673,0.04675791924800737,0.0,0.17537145611483104,0.22240580869456006,0.04768282735995337,1257.8624029437963,17074.19798903636
1.7808904452226113,895.5408806964898,895.2029591111453,0.0471348088438384,0.0,0.17548790270398804,0.22228900944370902,0.047682269723925995,1257.7805982199422,17089.076797708414
1.7908954477238619,895.6224675344034,895.3008652083499,0.04751245168229831,0.0,0.17560458171743454,0.22217197674209574,0.04768171046493333,1257.6986297242624,17103.93735770652
1.8009004502251125,895.7031303022059,895.3973835876942,0.0478908468036692,0.0,0.17572149286747893,0.222054710884022,0.047681149593426335,1257.6164976700272,17118.779695160934
1.810905452726363,895.7828978141868,895.4925568621511,0.04826999329067294,0.0,0.17583863587930784,0.22193721215070292,0.047680587119526996,1257.5342022611492,17133.603836859416
1.8209104552276139,895.8617980383449,895.5864263886579,0.04864989026721975,0.0,0.1759560104906065,0.22181948081065284,0.047680023053037104,1257.4517436924582,17148.409810219237
1.8309154577288644,895.9398581191114,895.6790323019292,0.0490305368973837,0.0,0.17607361645124656,0.22170151712000147,0.047679457403445286,1257.369122149927,17163.197643263044
1.840920460230115,896.0171044000537,895.7704135482353,0.049411932384374996,0.0,0.17619145352297394,0.22158332132281075,0.04767889017993423,1257.2863378108982,17177.96736459494
1.8509254627313656,896.0935624510015,895.8606079257368,0.04979407596929061,0.0,0.17630952147902915,0.22146489365146027,0.04767832139138959,1257.2033908443582,17192.719003373673
1.8609304652326162,896.1692570908019,895.9496521183211,0.0501769669300732,0.0,0.17642782010383082,0.22134623432696812,0.047677751046407445,1257.1202814111668,17207.45258928934
1.870935467733867,896.2442124063243,896.0375817238762,0.05056060458065013,0.0,0.1765463491927141,0.22122734355925683,0.0476771791533003,1257.0370096642473,17222.168152542956
1.8809404702351176,896.3184517756955,896.1244312888291,0.05094498826986022,0.0,0.17666510855160444,0.2211082215474839,0.047676605720104875,1256.953575748822,17236.865723823325
1.8909454727363681,896.3919978910737,896.2102343419957,0.05133011738039814,0.0,0.17678409799669698,0.22098886848036778,0.04767603075458972,1256.8699798026446,17251.545334284547
1.9009504752376187,896.4648727774851,896.2950234225829,0.051715991327948484,0.0,0.17690331735419343,0.2208692845364545,0.04767545426426146,1256.786221956192,17266.20701552655
1.9109554777388693,896.5370978105244,896.3788301065002,0.05210260956037294,0.0,0.17702276646005516,0.22074946988436855,0.04767487625637067,1256.7023023328425,17280.850799576532
1.9209604802401201,896.6086937383972,896.4616850391072,0.05248997155667787,0.0,0.1771424451596896,0.2206294246831313,0.04767429673791945,1256.618221049102,17295.4767188678
1.9309654827413707,896.6796807006995,896.5436179631132,0.052878076826139424,0.0,0.17726235330768447,0.22050914908243063,0.04767371571566787,1256.5339782148003,17310.084806221173
1.9409704852426213,896.7500782439837,896.6246577417061,0.0532669249075852,0.0,0.17738249076758966,0.22038864322284246,0.047673133196139125,1256.4495739332447,17324.675094828526
1.9509754877438719,896.8199053398812,896.7048323854696,0.05365651536854514,0.0,0.17750285741165928,0.22026790723609269,0.0476725491856259,1256.36500830141,17339.247618235
1.9609804902451224,896.8891804039501,896.7841690803673,0.05404684780436234,0.0,0.1776234531205819,0.22014694124533116,0.0476719636901969,1256.2802814101342,17353.802410321114
1.970985492746373,896.9579213112863,896.8626942109225,0.05443792183746196,0.0,0.1777442777832582,0.22002574536535735,0.04767137671570234,1256.1953933442792,17368.339505287062
1.9809904952476238,897.0261454104553,896.9404333809041,0.05482973711670165,0.0,0.17786533129660392,0.21990431970282043,0.04767078826777865,1256.110344182873,17382.8589376382
1.9909954977488744,897.0938695412465,897.0174114396724,0.055222293316526956,0.0,0.17798661356529352,0.21978266435647983,0.0476701983518549,1256.025133999297,17397.36074216858
2.001000500250125,897.1611100502014,897.093652505221,0.05561559013623489,0.0,0.17810812450153637,0.2196607794174322,0.04766960697315829,1255.9397628614481,17411.84495394605
2.0110055027513756,897.2278828034539,897.1691799832266,0.05600962729937027,0.0,0.1782298640248938,0.2195386649692976,0.047669014136718625,1255.8542308318713,17426.311608299067
2.0210105052526264,897.2942032008216,897.2440165879474,0.056404404553056516,0.0,0.17835183206207567,0.2194163210884258,0.04766841984737336,1255.7685379679076,17440.76074080303
2.0310155077538767,897.3600861913626,897.3181843652906,0.056799921667249086,0.0,0.1784740285467139,0.21929374784412634,0.0476678241097733,1255.682684321857,17455.192387266085
2.0410205102551275,897.4255462863001,897.3917047119692,0.0571961784341194,0.0,0.1785964534191754,0.21917094529885872,0.047667226928387214,1255.596669941118,17469.606583716613
2.0510255127563783,897.4905975701398,897.4645983919751,0.05759317466752819,0.0,0.17871910662640245,0.21904791350839464,0.047666628307505746,1255.5104948682995,17484.003366391764
2.0610305152576287,897.5552537148241,897.5368855575477,0.05799091020234224,0.0,0.17884198812170488,0.21892465252202856,0.04766602825124675,1255.424159141373,17498.38277172473
2.0710355177588795,897.6195279926077,897.6085857682395,0.05838938489381337,0.0,0.17896509786457207,0.2188011623827692,0.04766542676355987,1255.3376627938105,17512.744836332935
2.08104052026013,897.6834332867038,897.6797180066719,0.05878859861706866,0.0,0.17908843582051798,0.2186774431274969,0.04766482384823057,1255.251005854696,17527.089597007456
2.0910455227613807,897.7469821022414,897.7503006947416,0.05918855126658331,0.0,0.1792120019609212,0.21855349478712593,0.047664219508883963,1255.1641883488408,17541.417090702464
2.1010505252626315,897.8101865790596,897.820351712548,0.059589242755556784,0.0,0.1793357962628358,0.21842931738679672,0.047663613748989773,1255.0772102969224,17555.72735452414
2.111055527763882,897.873058502404,897.889888414199,0.059990673015394375,0.0,0.17945981870883376,0.21830491094603605,0.047663006571866215,1254.990071715599,17570.020425720722
2.1210605302651326,897.9356093119297,897.9589276410975,0.060392841995274046,0.0,0.1795840692868737,0.21818027547889018,0.047662397980683294,1254.902772617603,17584.296341673427
2.131065532766383,897.997850112889,898.0274857384595,0.060795749661598966,0.0,0.17970854799013478,0.21805541099409398,0.04766178797846704,1254.8153130118637,17598.55513988666
2.141070535267634,898.0597916868326,898.0955785711042,0.061199395997473295,0.0,0.17983325481685755,0.2179303174952322,0.04766117656810356,1254.727692903622,17612.796857978734
2.151075537768884,898.1214445004726,898.1632215365034,0.06160378100227073,0.0,0.17995818977021313,0.2178049949808728,0.047660563752342316,1254.6399122945263,17627.021533673433
2.161080540270135,898.1828187142459,898.2304295773773,0.062008904691217476,0.0,0.18008335285817662,0.2176794434446953,0.047659949533799366,1254.5519711827228,17641.229204791845
2.1710855427713858,898.2439241927897,898.2972171971179,0.06241476709487444,0.0,0.18020874409336998,0.21755366287565045,0.047659333914961334,1254.4638695629708,17655.419909243745
2.181090545272636,898.3047705138131,898.3635984728197,0.0628213682587008,0.0,0.18033436349292972,0.21742765325809466,0.04765871689818881,1254.3756074267399,17669.59368501979
2.191095547773887,898.3653669754912,898.4295870661016,0.06322870824269339,0.0,0.1804602110783974,0.2173014145719016,0.04765809848571914,1254.2871847622869,17683.750570184307
2.2011005502751373,898.4257226052698,898.4951962360109,0.06363678712095101,0.0,0.1805862868755875,0.21717494679259597,0.04765747867966971,1254.1986015547543,17697.890602867814
2.211105552776388,898.4858461687822,898.5604388520798,0.06404560498123213,0.0,0.18071259091445324,0.21704824989149007,0.04765685748204151,1254.1098577862667,17712.013821259774
2.221110555277639,898.5457461772579,898.6253274051256,0.06445516192458946,0.0,0.1808391232289756,0.21692132383579657,0.04765623489472186,1254.020953436011,17726.120263601977
2.2311155577788893,898.6054308943025,898.6898740170922,0.06486545806503684,0.0,0.18096588385706255,0.21679416858873105,0.047655610919487015,1253.9318884803122,17740.20996818211
2.24112056028014,898.6649083444408,898.7540904535011,0.06527649352912301,0.0,0.18109287284041947,0.21666678410964335,0.04765498555800546,1253.8426628927232,17754.28297332723
2.2511255627813904,898.7241863205218,898.8179881341869,0.06568826845556364,0.0,0.1812200902244375,0.21653917035413126,0.047654358811840825,1253.7532766441102,17768.339317397695
2.2611305652826412,898.7832723898852,898.8815781421664,0.06610078299493773,0.0,0.1813475360581018,0.21641132727413376,0.04765373068245419,1253.6637297027166,17782.37903878143
2.271135567783892,898.8421739013139,898.9448712336448,0.06651403730934259,0.0,0.18147521039388648,0.21628325481803756,0.047653101171206684,1253.574022034241,17796.4021758882
2.2811405702851424,898.9008979924957,899.0078778487692,0.0669280315720207,0.0,0.18160311328764156,0.21615495293079223,0.047652470279362584,1253.484153601918,17810.408767144134
2.291145572786393,898.9594515962693,899.070608120532,0.06734276596705051,0.0,0.18173124479849934,0.21602642155400534,0.04765183800809153,1253.3941243665881,17824.39885098654
2.3011505752876436,899.0178414461249,899.1330718825204,0.0677582406890764,0.0,0.18185960498879214,0.21589766062602575,0.047651204358470686,1253.3039342867557,17838.37246585884
2.3111555777888944,899.0760740831744,899.1952786788362,0.06817445594296057,0.0,0.18198819392394694,0.2157686700820509,0.04765056933148745,1253.2135833186662,17852.329650205713
2.321160580290145,899.1341558624174,899.2572377729285,0.06859141194347201,0.0,0.18211701167239105,0.21563944985422281,0.047649932928041885,1253.1230714163753,17866.270442468438
2.3311655827913955,899.1920929580015,899.3189581548658,0.0690091089150289,0.0,0.18224605830547383,0.21550999987170738,0.04764929514894869,1253.0323985318048,17880.19488108042
2.3411705852926463,899.2498913688021,899.3804485490357,0.06942754709142465,0.0,0.18237533389738364,0.2153803200607788,0.04764865599493927,1252.9415646148036,17894.103004462802
2.3511755877938967,899.3075569247459,899.4417174229312,0.06984672671551415,0.0,0.18250483852505262,0.21525041034491643,0.04764801546666433,1252.8505696132174,17907.994851020423
2.3611805902951475,899.3650952921747,899.5027729944301,0.07026664803895162,0.0,0.18263457226807725,0.21512027064488548,0.047647373564695734,1252.7594134729454,17921.870459137815
2.3711855927963983,899.4225119785052,899.5636232379297,0.0706873113219674,0.0,0.18276453520865063,0.21498990087880576,0.04764673028952838,1252.6680961379898,17935.729867175327
2.3811905952976486,899.4798123379983,899.62427589211,0.07110871683308585,0.0,0.18289472743147678,0.21485930096223896,0.04764608564158223,1252.576617550519,17949.573113465467
2.3911955977988995,899.5370015772128,899.6847384671552,0.07153086484886088,0.0,0.18302514902369044,0.21472847080826968,0.047645439621204516,1252.4849776509236,17963.400236309524
2.40120060030015,899.5940847596648,899.7450182506693,0.07195375565365587,0.0,0.18315580007479057,0.21459741032757385,0.047644792228671365,1252.3931763778687,17977.211273974124
2.4112056028014006,899.6510668105184,899.8051223135277,0.072377389539424,0.0,0.18328668067657322,0.21446611942848592,0.04764414346418946,1252.3012136683378,17991.0062646879
2.4212106053026514,899.7079525220996,899.865057516937,0.07280176680544466,0.0,0.18341779092305202,0.21433459801708038,0.04764349332789817,1252.2090894576954,18004.78524663862
2.431215607803902,899.7647465587105,899.9248305182999,0.07322688775810025,0.0,0.18354913091039016,0.21420284599724065,0.04764284181987121,1252.1168036797314,18018.548257970262
2.4412206103051526,899.8214534608683,899.9844477760294,0.07365275271068766,0.0,0.1836807007368433,0.21407086327071703,0.04764218894011811,1252.0243562667079,18032.295336780033
2.451225612806403,899.8780776503173,900.0439155554576,0.07407936198318926,0.0,0.18381250050269027,0.21393864973719726,0.047641534688586,1251.9317471494055,18046.02652111579
2.4612306153076537,899.9346234350409,900.103239934633,0.07450671590204674,0.0,0.1839445303101639,0.21380620529437647,0.0476408790651613,1251.8389762571755,18059.74184897367
2.4712356178089045,899.9910950136943,900.1624268090111,0.07493481479997066,0.0,0.18407679026339402,0.21367352983801566,0.04764022206967128,1251.7460435179805,18073.441358295637
2.481240620310155,900.0474964799417,900.2214818957655,0.07536365901576073,0.0,0.18420928046835225,0.21354062326199721,0.0476395637018853,1251.652948858435,18087.12508696696
2.4912456228114057,900.1038318275939,900.2804107392705,0.07579324889408365,0.0,0.18434200103278495,0.21340748545839347,0.04763890396151668,1251.5596922038537,18100.7930728144
2.501250625312656,900.1601049553125,900.3392187156618,0.07622358478528034,0.0,0.18447495206615458,0.21327411631752588,0.04763824284822406,1251.4662734782949,18114.445353604202
2.511255627813907,900.2163196709395,900.3979110364567,0.07665466704520227,0.0,0.18460813367959017,0.21314051572801582,0.04763758036161269,1251.3726926045956,18128.081967040027
2.5212606303151577,900.2724796963499,900.4564927527998,0.077086496035023,0.0,0.1847415459858299,0.21300668357684238,0.04763691650123587,1251.2789495044133,18141.70295076117
2.531265632816408,900.328588672539,900.5149687598979,0.07751907212104175,0.0,0.1848751890991617,0.2128726197494032,0.04763625126659648,1251.18504409827,18155.308342341224
2.541270635317659,900.3846501643734,900.5733438004888,0.0779523956745153,0.0,0.18500906313537227,0.21273832412956598,0.04763558465714822,1251.0909763055884,18168.898179286472
2.551275637818909,900.4406676653012,900.6316224677428,0.07838646707150435,0.0,0.18514316821170024,0.21260379659971623,0.04763491667229681,1250.9967460447256,18182.472499034266
2.56128064032016,900.4966446027668,900.68980920918,0.0788212866926836,0.0,0.1852775044467786,0.2124690370408154,0.0476342473114014,1250.902353233016,18196.031338952034
2.571285642821411,900.552584343491,900.7479083299035,0.07925685492317039,0.0,0.18541207196058282,0.21233404533245423,0.04763357657377593,1250.807797786808,18209.57473633632
2.581290645322661,900.6084901986621,900.8059239949613,0.07969317215237606,0.0,0.18554687087438568,0.2121988213528979,0.04763290445869027,1250.713079621498,18223.102728411508
2.591295647823912,900.6643654295465,900.863860231941,0.08013023877384468,0.0,0.18568190131070816,0.21206336497913642,0.04763223096537129,1250.6181986515653,18236.615352329005
2.6013006503251623,900.720213253491,900.9217209339301,0.08056805518507658,0.0,0.18581716339326615,0.21192767608693872,0.04763155609300442,1250.5231547906092,18250.112645166802
2.611305652826413,900.776036849913,900.979509861597,0.08100662178737374,0.0,0.18595265724692314,0.21179175455090027,0.04763087984073469,1250.427947951387,18263.594643928907
2.621310655327664,900.8318393665209,901.0372306445662,0.08144593898569807,0.0,0.18608838299764777,0.21165560024448696,0.04763020220766782,1250.3325780458415,18277.061385544614
2.6313156578289143,900.8876239261293,901.0948867835838,0.08188600718850181,0.0,0.18622434077246167,0.21151921304008725,0.04762952319287146,1250.2370449851405,18290.512906868535
2.641320660330165,900.9433936336904,901.1524816521883,0.08232682680756648,0.0,0.18636053069939107,0.21138259280906194,0.04762884279537658,1250.1413486797112,18303.949244680683
2.6513256628314155,900.999151583659,901.2100184975076,0.08276839825785755,0.0,0.18649695290742255,0.21124573942178887,0.04762816101417834,1250.0454890392737,18317.370435686335
2.6613306653326663,901.0549008679341,901.2675004409348,0.08321072195737375,0.0,0.18663360752645722,0.21110865274770949,0.047627477848237385,1249.949465972872,18330.77651651621
2.671335667833917,901.1106445842569,901.3249304792694,0.08365379832697833,0.0,0.18677049468725937,0.2109713326553809,0.04762679329648106,1249.8532793889133,18344.16752372726
2.6813406703351674,901.1663858450958,901.3823114849819,0.0840976277902442,0.0,0.18690761452140986,0.21083377901252348,0.04762610735780462,1249.756929195201,18357.54349380335
2.6913456728364182,901.2221277873268,901.439646205629,0.08454221077330787,0.0,0.18704496716126137,0.21069599168606612,0.04762542003107227,1249.660415298967,18370.904463155803
2.7013506753376686,901.2778735825035,901.4969372637958,0.08498754770470249,0.0,0.18718255273988793,0.2105579705421975,0.04762473131511847,1249.5637376069087,18384.25046812474
2.7113556778389194,901.3336264477296,901.554187156692,0.08543363901519148,0.0,0.18732037139103422,0.21041971544641758,0.047624041208749204,1249.4668960252257,18397.58154498063
2.72136068034017,901.3893896575689,901.6113982547791,0.08588048513760989,0.0,0.1874584232490677,0.21028122626358645,0.04762334971074319,1249.3698904596542,18410.8977299257
2.7313656828414206,901.4451665571117,901.6685727999222,0.08632808650670173,0.0,0.18759670844892884,0.21014250285797456,0.04762265681985302,1249.272720815504,18424.199059095743
2.7413706853426714,901.5009605754759,901.7257129040916,0.08677644355894014,0.0,0.1877352271260769,0.2100035450933181,0.04762196253480663,1249.1753869976972,18437.48556856257
2.7513756878439217,901.556775240574,901.7828205471425,0.08722555673235252,0.0,0.1878739794164365,0.2098643528328729,0.047621266854308654,1249.0778889108067,18450.75729433657
2.7613806903451725,901.6126141957086,901.8398975735397,0.08767542646634638,0.0,0.1880129654563449,0.20972492593946837,0.0476205697770416,1248.9802264590953,18464.014272369353
2.7713856928464233,901.6684812170395,901.8969456893855,0.08812605320151973,0.0,0.1881521853824945,0.20958526427556576,0.04761987130166743,1248.8823995465566,18477.256538557092
2.7813906953476737,901.724380232028,901.9539664592912,0.08857743737946598,0.0,0.18829163933187346,0.20944536770331842,0.04761917142682901,1248.7844080769587,18490.48412874435
2.7913956978489245,901.7803153400979,902.0109613021554,0.08902957944257742,0.0,0.18843132744170615,0.20930523608463247,0.04761847015115163,1248.686251953888,18503.697078728088
2.801400700350175,901.8362908357558,902.0679314861434,0.08948247983383954,0.0,0.18857124984939047,0.2091648692812302,0.04761776747324453,1248.5879310807925,18516.895424262104
2.8114057028514257,901.8923112320032,902.124878124481,0.0899361389966129,0.0,0.18871140669243192,0.20902426715471736,0.04761706339170262,1248.4894453610318,18530.07920106231
2.8214107053526765,901.94838128617,902.1818021703965,0.09039055737441028,0.0,0.18885179810837577,0.20888342956665196,0.04761635790510822,1248.3907946979268,18543.2484448124
2.831415707853927,902.0045060293121,902.2387044109339,0.09084573541066375,0.0,0.18899242423473628,0.208742356378616,0.04761565101203282,1248.2919789948082,18556.403191169935
2.8414207103551776,902.0606907973482,902.2955854610899,0.09130167354847916,0.0,0.18913328520892236,0.20860104745229144,0.047614942711038936,1248.1929981550732,18569.543475773353
2.851425712856428,902.1169412632927,902.3524457584432,0.09175837223038404,0.0,0.18927438116816084,0.20845950264953772,0.047614233000682155,1248.0938520822401,18582.669334249593
2.861430715357679,902.1732634735849,902.4092855569089,0.09221583189806438,0.0,0.18941571224941658,0.20831772183247318,0.047613521879513135,1247.9945406800066,18595.780802222413
2.8714357178589296,902.2296638892122,902.4661049198969,0.09267405299208362,0.0,0.18955727858930718,0.20817570486356177,0.047612809346079775,1247.8950638523113,18608.877915321606
2.88144072036018,902.2861494267636,902.5229037152914,0.0931330359515994,0.0,0.189699080324017,0.20803345160570014,0.0476120953989294,1247.7954215033974,18621.960709193114
2.8914457228614308,902.3427275032125,902.5796816105609,0.09359278121407183,0.0,0.1898411175892086,0.20789096192230802,0.04761138003661106,1247.6956135378748,18635.029219509965
2.901450725362681,902.3994060868331,902.6364380676982,0.0940532892149525,0.0,0.1899833905199281,0.2077482356774241,0.047610663257677995,1247.5956398607907,18648.083481984417
2.911455727863932,902.4561937515467,902.6931723397831,0.09451456038736555,0.0,0.19012589925050868,0.20760527273580423,0.04760994506068999,1247.4955003777,18661.123532381258
2.9214607303651827,902.5130997314133,902.7498834703297,0.09497659516179778,0.0,0.19026864391447618,0.20746207296301725,0.047609225444215905,1247.395194994731,18674.149406531982
2.931465732866433,902.5701339816202,902.806570293864,0.09543939396577658,0.0,0.1904116246444514,0.2073186362255444,0.047608504406836116,1247.29472361866,18687.16114035032
2.941470735367684,902.6273072474447,902.8632314385709,0.09590295722353169,0.0,0.19055484157204755,0.20717496239088354,0.04760778194714516,1247.1940861569833,18700.158769849666
2.9514757378689342,902.6846311320203,902.9198653342602,0.0963672853556839,0.0,0.19069829482777526,0.20703105132764532,0.04760705806375412,1247.093282517987,18713.142331161394
2.961480740370185,902.7421181679221,902.9764702246162,0.09683237877894733,0.0,0.19084198454095264,0.2068869029056451,0.04760633275529291,1246.9923126108124,18726.111860554407
2.971485742871436,902.7997818974617,903.0330441842154,0.09729823790582981,0.0,0.19098591083961386,0.20674251699599544,0.047605606020412604,1246.8911763455217,18739.067394457023
2.981490745372686,902.8576369582156,903.0895851429691,0.09776486314435702,0.0,0.19113007385042555,0.20659789347119106,0.04760487785778746,1246.789873633159,18752.008969480885
2.991495747873937,902.9156991643579,903.1460909198393,0.09823225489786785,0.0,0.19127447369862446,0.20645303220517233,0.04760414826611644,1246.6884043857963,18764.936622445253
3.0015007503751874,902.9739855954668,903.2025592656133,0.09870041356484321,0.0,0.19141911050796534,0.20630793307337786,0.0476034172441244,1246.5867685165695,18777.850390403677
3.011505752876438,903.0325146950285,903.2589879177737,0.09916933953877906,0.0,0.19156398440068226,0.20616259595278397,0.04760268479056298,1246.4849659397066,18790.75031067401
3.0215107553776885,903.0913063636056,903.3153746700336,0.099639033208177,0.0,0.19170909549748544,0.20601702072190745,0.0476019509042103,1246.3829965705313,18803.636420868945
3.0315157578789393,903.1503820505465,903.3717174568491,0.10010949495665003,0.0,0.19185444391759326,0.20587120726077324,0.04760121558386996,1246.2808603254384,18816.508758927812
3.04152076038019,903.2097648531886,903.4280144565614,0.10058072516313678,0.0,0.19200002977879688,0.2057251554508483,0.04760047882836899,1246.1785571218454,18829.367363151865
3.0515257628814405,903.2694796191603,903.4842642175296,0.10105272420227786,0.0,0.1921458531975739,0.2055788651749255,0.047599740636554366,1246.076086878111,18842.212272242552
3.0615307653826913,903.32955303201,903.540465804249,0.10152549244502343,0.0,0.1922919142892728,0.20543233631693644,0.04759900100728772,1245.9734495133998,18855.043525338613
3.0715357678839417,903.390013697997,903.5966189685009,0.10199903025944922,0.0,0.1924382131683597,0.20528556876169968,0.04759825993943833,1245.8706449475014,18867.861162055946
3.0815407703851925,903.4508922361052,903.6527243525557,0.10247333801183892,0.0,0.19258474994874653,0.20513856239458705,0.04759751743187372,1245.7676731005936,18880.66522253184
3.0915457728864433,903.5122213505713,903.7087837197228,0.10294841606810667,0.0,0.1927315247442219,0.20499131710108476,0.047596773483447465,1245.6645338929247,18893.45574746872
3.1015507753876936,903.5740358846505,903.7648002088309,0.10342426479556507,0.0,0.19287853766898705,0.20484383276624807,0.04759602809298427,1245.5612272444255,18906.232778177004
3.1115557778889444,903.6363728697123,903.8207786234997,0.10390088456509156,0.0,0.1930257888383125,0.20469610927403317,0.04759528125926151,1245.4577530742306,18918.996356621483
3.121560780390195,903.6992715634733,903.8767257599474,0.10437827575379563,0.0,0.19317327836934645,0.20454814650647424,0.04759453298098657,1245.3541113000877,18931.74652547089
3.1315657828914456,903.7627734487522,903.9326507456906,0.10485643874813941,0.0,0.19332100638206062,0.20439994434272096,0.047593783256770564,1245.2503018376692,18944.483328141858
3.1415707853926964,903.8269222142335,903.9885654026617,0.10533537394757103,0.0,0.19346897300035204,0.2042515026579176,0.04759303208509761,1245.1463245997707,18957.206808843814
3.1515757878939468,903.8917637183811,904.0444846427242,0.105815081768809,0.0,0.19361717835334138,0.2041028213218812,0.04759227946428863,1245.0421794953627,18969.917012627087
3.1615807903951976,903.9573459159809,904.1004268692604,0.10629556265073749,0.0,0.1937656225768574,0.20395390019759171,0.047591525392460025,1244.9378664285102,18982.613985427546
3.171585792896448,904.0237187424899,904.1564143588955,0.10677681705975578,0.0,0.19391430581505859,0.20380473913954122,0.04759076986747854,1244.8333852971923,18995.29777410432
3.1815907953976987,904.0909339740936,904.2124736469488,0.10725884549580376,0.0,0.1940632282222599,0.20365533799187532,0.04759001288691045,1244.7287359919696,19007.9684264785
3.1915957978989495,904.1590450563589,904.2686359099156,0.1077416484991831,0.0,0.19421238996500068,0.20350569658628864,0.04758925444796379,1244.6239183944788,19020.62599137212
3.2016008004002,904.228106882101,904.3249372734867,0.10822522665763139,0.0,0.19436179122418934,0.20335581473984235,0.047588494547428584,1244.5189323758684,19033.270518634854
3.2116058029014507,904.2981755387704,904.3814190690596,0.1087095806138217,0.0,0.194511432197377,0.20320569225265028,0.047587733181613356,1244.4137777951448,19045.902059166343
3.221610805402701,904.3693080269513,904.4381280466288,0.10919471107351936,0.0,0.19466131310123022,0.20305532890536238,0.04758697034627587,1244.3084544973688,19058.52066493749
3.231615807903952,904.4415619420718,904.4951164993855,0.10968061881406721,0.0,0.19481143417410324,0.202904724456547,0.04758620603655086,1244.2029623117794,19071.126389004166
3.2416208104052027,904.5149951273957,904.552442254483,0.11016730469248377,0.0,0.1949617956784928,0.20275387864019206,0.047585440246880974,1244.0973010500095,19083.7192855065
3.251625812906453,904.5896653102734,904.6101685811955,0.11065476965379523,0.0,0.19511239790356374,0.20260279116313454,0.04758467297094535,1243.99147050424,19096.299409665084
3.261630815407704,904.6656297175815,904.6683640057172,0.11114301473965398,0.0,0.1952632411677609,0.2024514617024012,0.047583904201585245,1243.8854704452979,19108.8668177736
3.271635817908954,904.7429446831146,904.727101968608,0.11163204109597183,0.0,0.19541432582112248,0.20229988990285375,0.047583133930737716,1243.7793006209702,19121.421567175345
3.281640820410205,904.8216652599197,904.7864603694854,0.11212184997984984,0.0,0.19556565224737948,0.2021480753750504,0.04758236214937474,1243.672960754468,19133.963716231363
3.291645822911456,904.9018448336435,904.8465210243319,0.11261244276629721,0.0,0.195717220865991,0.2019960176931732,0.047581588847443436,1243.5664505429456,19146.493324285075
3.301650825412706,904.983534743329,904.9073690174379,0.11310382095422808,0.0,0.19586903213395981,0.2018437163931775,0.04758081401381155,1243.4597696561705,19159.010451618953
3.311655827913957,905.0667839416133,904.9690919478987,0.11359598617043094,0.0,0.19602108654703324,0.2016911709715677,0.04758003763622962,1243.3529177356459,19171.515159396655
3.3216608304152073,905.1516386785675,905.0317791322667,0.11408894017281641,0.0,0.19617338464068398,0.20153838088439507,0.047579259701298296,1243.24589439389,19184.007509602434
3.331665832916458,905.2381422045405,905.0955207643892,0.11458268485302017,0.0,0.19632592699089538,0.20138534554645526,0.0475784801944399,1243.1386992138564,19196.48756497747
3.341670835417709,905.3263345263063,905.160407042729,0.11507722223693971,0.0,0.1964787142143189,0.20123206433112276,0.047577699099886656,1243.0313317488144,19208.95538894602
3.3516758379189593,905.4162522161963,905.2265273122272,0.1155725544835974,0.0,0.19663174696792382,0.20107853657070246,0.047576916400682207,1242.9237915225926,19221.41104553658
3.36168084042021,905.5079282501985,905.2939692310772,0.11606868388327554,0.0,0.19678502594842495,0.2009247615570057,0.04757613207868778,1242.8160780299877,19233.854599302937
3.3716858429214605,905.6013918813672,905.3628179669929,0.11656561285456377,0.0,0.19693855189137954,0.20077073854226232,0.04757534611459606,1242.7081907374095,19246.28611524263
3.3816908454227113,905.6966685893566,905.4331554783574,0.1170633439390653,0.0,0.19709232556957346,0.20061646674075512,0.04757455848796417,1242.6001290840438,19258.7056587105
3.391695847923962,905.7937800618009,905.5050598716517,0.11756187979537842,0.0,0.19724634779118663,0.2004619453306782,0.04757376917725123,1242.4918924831752,19271.113295334257
3.4017008504252124,905.8927441983258,905.5786048227353,0.11806122319249021,0.0,0.19740061939777856,0.20030717345617727,0.04757297815985874,1242.3834803236375,19283.509090931115
3.4117058529264632,905.9935751665238,905.6538591027881,0.11856137700168318,0.0,0.19755514126182147,0.2001521502298488,0.04757218541218222,1242.274891971591,19295.893111424135
3.4217108554277136,906.0962835056256,905.7308862252719,0.11906234418725736,0.0,0.19770991428387372,0.19999687473560518,0.047571390909671864,1242.1661267725638,19308.265422761226
3.4317158579289644,906.2008762412194,905.8097441659031,0.11956412779701818,0.0,0.19786493938967986,0.19984134603161266,0.047570594626892636,1242.0571840535406,19320.62609083757
3.441720860430215,906.3073570144469,905.8904851531876,0.12006673095227373,0.0,0.19802021752711976,0.19968556315338085,0.04756979653758565,1241.9480631251606,19332.975181420126
3.4517258629314655,906.4157262591663,905.9731555933403,0.12057015683668705,0.0,0.19817574966280965,0.1995295251172066,0.04756899661473857,1241.8387632841643,19345.312760076802
3.4617308654327164,906.5259813854324,906.0577960639115,0.1210744086850016,0.0,0.19833153677866266,0.19937323092365664,0.04756819483065452,1241.7292838158721,19357.638892110503
3.4717358679339667,906.6381169606337,906.1444413505932,0.12157948977162401,0.0,0.19848757986840251,0.19921667956109607,0.04756739115701835,1241.619623996688,19369.953642495995
3.4817408704352175,906.7521249059108,906.2331205582802,0.12208540339869917,0.0,0.19864387993392144,0.1990598700093731,0.047566585564964264,1241.5097830967152,19382.25707582117
3.4917458729364683,906.8679947097562,906.3238573060596,0.12259215288390586,0.0,0.1988004379815514,0.19890280124359142,0.04756577802514467,1241.3997603824341,19394.549256235692
3.5017508754377187,906.9857136293041,906.4166699382915,0.12309974154825216,0.0,0.19895725501833167,0.198745472237883,0.04756496850779417,1241.289555119376,19406.830247402897
3.5117558779389695,907.1052668833219,906.5115717513183,0.12360817270353794,0.0,0.19911433204817033,0.19858788196928528,0.04756415698279029,1241.179166574867,19419.10011245368
3.52176088044022,907.2266378571625,906.608571284879,0.12411744963962301,0.0,0.19927167006794513,0.1984300294216784,0.04756334341971432,1241.0685940208148,19431.35891394869
3.5317658829414706,907.3498082978613,906.7076726251057,0.12462757561165445,0.0,0.19942927006358804,0.1982719135897367,0.04756252778790785,1240.9578367365027,19443.606713845238
3.5417708854427215,907.4747584942095,906.8088756978439,0.12513855382685807,0.0,0.19958713300603126,0.19811353348301575,0.04756171005652503,1240.846894011473,19455.843573465507
3.551775887943972,907.6014674508915,906.912176571901,0.12565038743080287,0.0,0.19974525984698685,0.19795488813020376,0.04756089019458196,1240.7357651485254,19468.06955346838
3.5617808904452226,907.729913061122,907.0175677879652,0.12616307949376784,0.0,0.19990365151475573,0.19779597658334216,0.047560068171003285,1240.6244494666896,19480.28471382993
3.571785892946473,907.8600722626226,907.1250386648484,0.1266766329964579,0.0,0.20006230890983093,0.19763679792224909,0.0475592439546642,1240.5129463043386,19492.489113824857
3.5817908954477238,907.9919211807471,907.2345755872994,0.12719105081453363,0.0,0.2002212329001301,0.19747735125931126,0.04755841751442932,1240.4012550225539,19504.682812007897
3.5917958979489746,908.1254352671758,907.3461623038277,0.12770633570288903,0.0,0.20038042431614692,0.1973176357443551,0.04755758881918826,1240.2893750085454,19516.865866202614
3.601800900450225,908.2605894271089,907.4597802115906,0.12822249027938226,0.0,0.20053988394592953,0.19715765056968854,0.04755675783788763,1240.1773056791872,19529.038333494165
3.6118059029514757,908.3973581333204,907.5754086156186,0.12873951700688777,0.0,0.20069961252953564,0.1969973949756642,0.04755592453955982,1240.0650464849139,19541.200270221092
3.621810905452726,908.5357155311272,907.6930249735027,0.12925741817352226,0.0,0.20085961075291903,0.19683686825680957,0.04755508889334946,1239.9525969140125,19553.35173196825
3.631815907953977,908.6756355358311,907.8126051383226,0.12977619587280018,0.0,0.20101987924179043,0.19667606976798033,0.04755425086853601,1239.8399564969232,19565.492773567836
3.6418209104552277,908.8170919186916,907.9341235766467,0.13029585198163499,0.0,0.20118041855480834,0.1965149989311825,0.04755341043455376,1239.72712481101,19577.623449099625
3.651825912956478,908.9600583840545,908.0575535659827,0.13081638813513563,0.0,0.20134122917577352,0.1963536552433892,0.047552567561010395,1239.6141014860202,19589.74381188943
3.661830915457729,909.104508639007,908.1828673836224,0.13133780569988532,0.0,0.20150231150535056,0.19619203828482934,0.04755172221770251,1239.500886209871,19601.85391451246
3.6718359179589792,909.2504164540891,908.3100364808695,0.1318601057457258,0.0,0.20166366585232276,0.19603014772774047,0.04755087437462821,1239.3874787347565,19613.953808800303
3.68184092046023,909.3977557164047,908.4390316374994,0.13238328901335025,0.0,0.2018252924235456,0.19586798334642258,0.04755002400199866,1239.2738788841643,19626.043545845558
3.691845922961481,909.5465004766504,908.5698231020131,0.13290735587700048,0.0,0.20198719131238044,0.19570554502881127,0.04754917107024867,1239.1600865609455,19638.123176005298
3.701850925462731,909.6966249879817,908.7023807224118,0.13343230630625144,0.0,0.20214936248684195,0.1955428327883348,0.04754831555004367,1239.046101755583,19650.192748911508
3.711855927963982,909.8481037384817,908.8366740609741,0.13395813982296068,0.0,0.20231180577624377,0.19537984677727196,0.04754745741228589,1238.9319245555052,19662.252313480083
3.7218609304652324,910.0009114789524,908.972672495996,0.13448485545096375,0.0,0.20247452085559403,0.19521658730236052,0.047546596628120184,1238.8175551559648,19674.301917917102
3.731865932966483,910.1550232446157,909.110345313446,0.13501245166085868,0.0,0.20263750722846494,0.19505305484193042,0.0475457331689383,1238.7029938719822,19686.34160972749
3.741870935467734,910.3104143697889,909.2496617871284,0.13554092631177267,0.0,0.2028007642089238,0.19488925006397345,0.04754486700638062,1238.5882411509401,19698.371435727327
3.7518759379689843,910.4670604987418,909.3905912478334,0.13607027658393145,0.0,0.2029642909006105,0.19472517384706772,0.04754399811233832,1238.4732975871634,19710.39144205311
3.761880940470235,910.6249375929752,909.5331031438924,0.13660049889982753,0.0,0.20312808617227734,0.19456082730483854,0.04754312645895558,1238.3581639389683,19722.40167416862
3.7718859429714855,910.784021931293,909.677167091803,0.13713158884211535,0.0,0.20329214863231088,0.19439621181143715,0.047542252018629216,1238.242841146417,19734.40217687699
3.7818909454727363,910.9442901056885,909.8227529177528,0.1376635410619171,0.0,0.20345647660027738,0.19423132902999404,0.047541374764008056,1238.1273303511446,19746.39299433176
3.791895947973987,911.1057190142861,909.9698306922099,0.13819634917162815,0.0,0.2036210680736599,0.19406618094588243,0.047540494667992976,1238.0116329195375,19758.37417004462
3.8019009504752375,911.2682858494658,910.1183707570582,0.1387300056246753,0.0,0.20378592069054555,0.1939007699040306,0.04753961170373642,1237.895750468738,19770.345746893483
3.8119059529764883,911.431968079741,910.2683437434883,0.13926450158986126,0.0,0.20395103169063122,0.19373509864791455,0.04753872584464005,1237.7796848938103,19782.307767134178
3.8219109554777386,911.5967434286555,910.419720584099,0.13979982680650382,0.0,0.20411639787027072,0.19356917036451002,0.047537837064353265,1237.663438399068,19794.260272408916
3.8319159579789894,911.7625898500193,910.5724725198011,0.14033596941470175,0.0,0.20428201552980407,0.193402988736963,0.04753694533677264,1237.5470135347737,19806.203303751492
3.8419209604802402,911.9294854967324,910.7265710981875,0.1408729157762618,0.0,0.2044478804179875,0.19323655800015788,0.04753605063603989,1237.4304132358648,19818.13690159604
3.8519259629814906,912.0974086851444,910.8819881655384,0.14141065027818883,0.0,0.20461398767101235,0.19306988300169786,0.047535152936539544,1237.3136408644414,19830.06110578518
3.8619309654827414,912.2663378552712,911.0386958541841,0.1419491551042989,0.0,0.20478033174163346,0.19290296927277542,0.04753425221289816,1237.196700259155,19841.97595557449
3.8719359679839918,912.4362515251757,911.1966665637837,0.14248840997567006,0.0,0.20494690631862786,0.19273582310871384,0.04753334843998392,1237.0795957913326,19853.881489635518
3.8819409704852426,912.6071282392932,911.3558729345141,0.14302839188265512,0.0,0.2051137042436332,0.19256845165212705,0.04753244159290465,1236.9623324229235,19865.777746062206
3.891945972986493,912.7789465116284,911.5162878154684,0.14356907477930003,0.0,0.20528071741632198,0.19240086298774553,0.04753153164700737,1236.8449157725806,19877.664762373723
3.9019509754877437,912.9516847619032,911.6778842274741,0.14411042922714576,0.0,0.20544793668386965,0.1922330662529488,0.047530618577879345,1236.7273521926836,19889.542575513486
3.9119559779889945,913.1253212446867,911.8406353181573,0.14465242201629608,0.0,0.20561535172336734,0.1920650717553526,0.04752970236134849,1236.6096488512796,19901.411221849674
3.921960980490245,913.2998339724911,912.0045143106804,0.14519501575982874,0.0,0.20578295091596271,0.19189689109866884,0.047528782973484035,1236.4918138197893,19913.27073717555
3.9319659829914957,913.4752006303721,912.1694944463151,0.1457381684276568,0.0,0.20595072120221297,0.1917285373273541,0.04752786039059896,1236.373856173804,19925.121156705336
3.941970985492746,913.6513984800152,912.3355489189868,0.14628183281516247,0.0,0.20611864791719767,0.1915600250914992,0.04752693458925414,1236.2557861079927,19936.962515066793
3.951975987993997,913.8284042584105,912.5026508027718,0.14682595600445192,0.0,0.20628671462334078,0.1913913708140093,0.04752600554626138,1236.1376150526003,19948.794846296503
3.9619809904952477,914.006194067012,912.670772972383,0.14737047876323597,0.0,0.20645490292387814,0.1912225928771395,0.047525073238688445,1236.0193558034373,19960.61818383124
3.971985992996498,914.184743247267,912.8398880141434,0.14791533485460814,0.0,0.20662319224867703,0.19105371183667996,0.047524137643866475,1235.9010226711378,19972.432560494075
3.981990995497749,914.3640262468648,913.0099681284325,0.14846045030511448,0.0,0.20679155962711304,0.1908847506490843,0.04752319873939815,1235.7826316394353,19984.238008479795
3.991995997998999,914.544016480371,913.1809850261268,0.14900574265338515,0.0,0.20695997945491415,0.19071573490463067,0.04752225650316607,1235.6642005276449,19996.03455934032
4.00200100050025,914.7246861753982,913.3529098148717,0.14955112010677282,0.0,0.2071284232324601,0.1905466930891297,0.047521310913344245,1235.5457491730358,20007.822243964252
4.012006003001501,914.9060062014804,913.5257128726557,0.1500964805952098,0.0,0.20729685927118877,0.19037765687752728,0.047520361948412373,1235.427299635436,20019.601092550638
4.022011005502751,915.087945898772,913.6993637180387,0.15064171085045455,0.0,0.20746525240787933,0.19020866141963017,0.04751940958717005,1235.3088763963406,20031.371134584737
4.0320160080040015,915.2704728964812,913.873830872202,0.15118668542891,0.0,0.20763356370142624,0.19003974564334267,0.047518453808753254,1235.1905065702294,20043.13239880927
4.042021010505253,915.4535529136186,914.0490817077767,0.15173126563252715,0.0,0.2078017500979889,0.1898709525895298,0.04751749459265496,1235.072220137921,20054.8849131883
4.052026013006503,915.6371495527037,914.2250822901984,0.15227529840798457,0.0,0.2079697640894001,0.18970232975362333,0.04751653191874788,1234.9540501846263,20066.6287048679
4.0620310155077535,915.8212241022466,914.4017972219999,0.15281861532554847,0.0,0.20813755339629855,0.18953392940250388,0.04751556576730748,1234.8360331207723,20078.36380013789
4.072036018009005,916.005735328718,914.5791894779843,0.153361031508289,0.0,0.20830506063585735,0.18936580890678947,0.04751459611903917,1234.7182089135645,20090.090224386087
4.082041020510255,916.1906392569734,914.7572202295452,0.1539023445150563,0.0,0.20847222297516463,0.18919803108747543,0.04751362295511056,1234.6006213285484,20101.808002044152
4.092046023011505,916.37588897589,914.9358486820764,0.15444233341485603,0.0,0.20863897184399505,0.18903066450318312,0.047512646257183336,1234.4833181297856,20113.517156536098
4.102051025512757,916.5614344581469,915.1150319187177,0.15498075797703936,0.0,0.2088052326835192,0.18886378370147186,0.047511666007447634,1234.3663512549838,20125.21771022352
4.112056028014007,916.7472223841435,915.2947247427924,0.15551735792297744,0.0,0.20897092471409326,0.18869746945107518,0.04751068218866182,1234.2497769773393,20136.90968434242
4.122061030515257,916.9331959902238,915.474879531636,0.15605185237352703,0.0,0.20913596076380364,0.18853180891338267,0.0475096947841955,1234.1336560250381,20148.5930989359
4.132066033016508,917.119294978824,915.6554461285789,0.15658393971492401,0.0,0.20930024722685192,0.18836689568408135,0.04750870377807058,1234.0180536102794,20160.267972793587
4.142071035517759,917.3054554607361,915.8363717518921,0.15711329770659785,0.0,0.20946368409701038,0.18820282975972863,0.0475077091550064,1233.903039405985,20171.934323385198
4.152076038019009,917.4916099368847,916.0176009241749,0.15763958389074528,0.0,0.2096261650947178,0.18803971741068876,0.047506710900470435,1233.7886874572632,20183.5921667871
4.16208104052026,917.6776873691156,916.1990754582465,0.15816243658887333,0.0,0.20978757797631528,0.18787767087192664,0.047505709000725996,1233.67507596594,20195.24151761751
4.172086043021511,917.8636133320705,916.3807344949743,0.15868147642889294,0.0,0.20994780500791776,0.18771680786916664,0.04750470344287881,1233.5622869603667,20206.88238897707
4.182091045522761,918.0493102330926,916.5625145820645,0.1591963083405643,0.0,0.21010672358462068,0.18755725099971676,0.04750369421492702,1233.4504058639543,20218.51479238645
4.192096048024012,918.2346976229193,916.7443498099639,0.15970652415431563,0.0,0.21026420703694176,0.1873991269260597,0.047502681305812526,1233.3395209332298,20230.1387377259
4.202101050525263,918.4196926255189,916.9261720318563,0.1602117059103715,0.0,0.21042012565767818,0.18724256534902203,0.04750166470546259,1233.2297225422953,20241.754233195916
4.212106053026513,918.6042104491171,917.1079111385103,0.16071142967380864,0.0,0.21057434788576146,0.18708769782394521,0.0475006444048311,1233.1211023578824,20253.36128528202
4.222111055527764,918.7881649843961,917.2894953917441,0.16120526989555736,0.0,0.21072674165952895,0.18693465640744109,0.04749962039594087,1233.0137523963524,20264.95989872264
4.232116058029014,918.9714694989226,917.4708518315864,0.16169280429598798,0.0,0.21087717593216132,0.1867835721419751,0.04749859267191644,1232.9077639676875,20276.55007649748
4.242121060530265,919.1540373949418,917.651906738693,0.16217361903303557,0.0,0.21102552227541832,0.1866345734521447,0.04749756122700663,1232.8032265579488,20288.131819836464
4.252126063031516,919.3357830123913,917.8325861356055,0.16264731407927896,0.0,0.21117165654822048,0.18648778447611072,0.0474965260566051,1232.7002266665459,20299.70512823603
4.262131065532766,919.5166224738908,918.0128163282553,0.16311350875631503,0.0,0.21131546061404757,0.18634332334820936,0.04749548715726683,1232.5988466094957,20311.269999486813
4.272136068034017,919.6964745168311,918.1925244642509,0.16357184696326227,0.0,0.21145682396342327,0.18620130057646642,0.04749444452670653,1232.4991633888078,20322.82642973218
4.282141070535268,919.875261293346,918.371639086993,0.16402200205135628,0.0,0.2115956452265836,0.1860618175299246,0.04749339816379143,1232.401247638398,20334.374413537924
4.292146073036518,920.052909137206,918.5500906844377,0.16446368134421432,0.0,0.21173183357619743,0.18592496503591593,0.04749234806853067,1232.3051626466213,20345.913943970052
4.302151075537768,920.2293492501132,918.7278122083504,0.16489662993699714,0.0,0.21186530990632343,0.185790822201091,0.04749129424205313,1232.21096353473,20357.44501269143
4.31215607803902,920.40451825633,918.9047395298687,0.16532063345296566,0.0,0.21199600768783375,0.18565945555597282,0.04749023668657178,1232.1186966607736,20368.967610076674
4.32216108054027,920.5783586618306,919.0808118463585,0.16573552006809172,0.0,0.2121238735967088,0.18553091842663777,0.047489175405346,1232.0283991817787,20380.481725329642
4.33216608304152,920.7508192154507,919.2559720388554,0.16614116177968258,0.0,0.2122488679077429,0.1854052505409851,0.047488110402641004,1231.9400987793979,20391.987346605365
4.3421710855427715,920.9218550915502,919.4301669284484,0.16653747439073532,0.0,0.21237096448971876,0.18528247803352738,0.047487041683673806,1231.8538136632642,20403.48446114522
4.352176088044022,921.0914279492399,919.6033474577648,0.16692441665151048,0.0,0.21249015053905537,0.18516261371170745,0.047485969254556726,1231.7695527565859,20414.973055411083
4.362181090545272,921.2595059035621,919.7754688188421,0.16730198880293864,0.0,0.21260642612783487,0.18504565750783625,0.04748489312224181,1231.6873160110895,20426.453115215572
4.3721860930465235,921.4260633832818,919.9464905093485,0.1676702303704559,0.0,0.21271980351922404,0.18493159716363403,0.04748381329446185,1231.6070948840486,20437.924625851807
4.382191095547774,921.5910808553743,920.1163762959707,0.16802921714940947,0.0,0.21283030623201957,0.18482040916564407,0.047482729779665556,1231.5288729901245,20449.38757222089
4.392196098049024,921.7545445049734,920.2850941416763,0.16837905796655736,0.0,0.2129379680357095,0.18471205975013266,0.04748164258695651,1231.4526268016257,20460.841938949954
4.402201100550275,921.9164458799831,920.4526161038578,0.16871989126808268,0.0,0.21304283189169615,0.18460650596182912,0.047480551726034916,1231.3783263862838,20472.287710502707
4.412206103051526,922.076781458386,920.6189181669154,0.16905188133937787,0.0,0.21314494878024298,0.1845036968269407,0.04747945720713649,1231.3059362246534,20483.724871283284
4.422211105552776,922.2355521955832,920.7839800461605,0.16937521453148907,0.0,0.21324437652948136,0.18440357452410827,0.047478359040973875,1231.2354160260736,20495.15340572955
4.4322161080540265,922.3927630855704,920.9477849900275,0.16969009567029678,0.0,0.21334117870112113,0.1843060754986621,0.04747725723868261,1231.1667215051186,20506.573298397154
4.442221110555278,922.5484227238425,921.110319570593,0.1699967445874835,0.0,0.21343542351394804,0.1842111315390914,0.04747615181176977,1231.0998051317113,20517.98453403562
4.452226113056528,922.7025428578771,921.2715734431857,0.17029539276629607,0.0,0.21352718280293595,0.18411867081790007,0.047475042772062596,1231.0346168564167,20529.38709765345
4.4622311155577785,922.855137976437,921.4315391202716,0.17058628033294657,0.0,0.21361653108561343,0.18402861882521063,0.04747393013166231,1230.971104760994,20540.780974574736
4.47223611805903,923.006224933831,921.5902117599388,0.1708696533442966,0.0,0.21370354472037104,0.18394089921043022,0.04747281390290166,1230.9092156448876,20552.166150489633
4.48224112056028,923.1558225885436,921.7475889457567,0.17114576132154016,0.0,0.2137883011410998,0.183855434547586,0.04747169409830397,1230.848895558518,20563.542611495774
4.4922461230615305,923.3039514726464,921.9036704724316,0.1714148551041889,0.0,0.21387087819122216,0.18377214700127048,0.04747057073054523,1230.7900902673175,20574.910344131247
4.502251125562781,923.4506335022479,922.058458153606,0.1716771850084728,0.0,0.21395135355218778,0.183690958898124,0.0474694438124199,1230.7327456499374,20586.26933540327
4.512256128064032,923.5958917186675,922.2119556437001,0.17193299923512015,0.0,0.2140298042493556,0.18361179322093255,0.04746831335680924,1230.6768080425331,20597.619572812895
4.5222611305652824,923.7397500508433,922.364168257049,0.17218254255447274,0.0,0.2141063062439338,0.18353457401666906,0.0474671793766515,1230.6222245230767,20608.96104437059
4.532266133066533,923.8822331118698,922.5151028068158,0.17242605523301469,0.0,0.2141809340998351,0.18345922672962114,0.047466041884915156,1230.5689431434737,20620.29373860885
4.542271135567784,924.023366023435,922.664767461902,0.17266377214155776,0.0,0.21425376070690474,0.1833856784781474,0.04746490089457436,1230.516913122391,20631.617644593534
4.552276138069034,924.163174260705,922.8131716094327,0.17289592206104132,0.0,0.21432485706547075,0.18331385827011315,0.047463756418586134,1230.4660849953602,20642.93275193028
4.562281140570285,924.3016835189054,922.9603257245446,0.1731227271863349,0.0,0.21439429213233702,0.18324369715688388,0.047462608469869855,1230.4164107220656,20654.23905076567
4.572286143071536,924.4389196010694,923.1062412565881,0.1733444027443739,0.0,0.21446213270225822,0.18317512835183875,0.047461457061288535,1230.3678437689043,20665.536531788595
4.582291145572786,924.5749083217523,923.2509305269531,0.17356115670495179,0.0,0.21452844331816906,0.18310808732013029,0.04746030220563124,1230.3203391715197,20676.825186231443
4.592296148074037,924.7096754255988,923.3944066287542,0.17377318965360747,0.0,0.21459328623171345,0.1830425118181453,0.04745914391559761,1230.2738535622748,20688.10500586528
4.602301150575287,924.8432465200781,923.5366833376529,0.17398069473981886,0.0,0.21465672138714448,0.18297834190959594,0.04745798220378388,1230.2283451814517,20699.375982994614
4.612306153076538,924.9756470186716,923.6777750332124,0.17418385766102631,0.0,0.21471880641634483,0.1829155199704911,0.04745681708266962,1230.1837738806971,20710.638110453536
4.622311155577789,925.1069020935415,923.817696625365,0.1743828567168596,0.0,0.21477959665563312,0.18285399067232236,0.047455648564605636,1230.1401011112882,20721.891381600013
4.632316158079039,925.2370366385527,923.9564634847773,0.17457786295442793,0.0,0.21483914519082958,0.18279370093699182,0.04745447666180389,1230.0972898927118,20733.13579030638
4.64232116058029,925.3660752386305,924.094091381798,0.17476904031672066,0.0,0.21489750290328877,0.1827345998907737,0.047453301386327876,1230.0553047805681,20744.371330951653
4.652326163081541,925.4940421436394,924.2305964316504,0.17495654579218128,0.0,0.21495471851629727,0.18267663881790988,0.04745212275008316,1230.0141118342221,20755.597998415316
4.662331165582791,925.6209612498212,924.365995041742,0.1751405296370189,0.0,0.21501083866404438,0.18261977109163524,0.047450940764809886,1229.973678568726,20766.81578806719
4.672336168084042,925.7468560859127,924.5003038642278,0.17532113560913534,0.0,0.21506590796419842,0.18256395210159687,0.04744975544207613,1229.933973904231,20778.024695757213
4.682341170585293,925.8717498012243,924.6335397537414,0.17549850118171081,0.0,0.21511996908417153,0.18250913918758466,0.047448566793271175,1229.8949681197992,20789.224717807327
4.692346173086543,925.9956651565847,924.7657197282782,0.17567275776440266,0.0,0.21517306280974854,0.1824552915708992,0.0474473748295993,1229.8566328055672,20800.41585100329
4.702351175587793,926.1186245208137,924.8968609325077,0.1758440309704854,0.0,0.21522522812797262,0.1824023702714629,0.04744617956207552,1229.8189408049773,20811.598092583128
4.712356178089045,926.2406498678181,925.0269806051248,0.17601244085719417,0.0,0.21527650230171674,0.1823503380332458,0.04744498100152127,1229.7818661628037,20822.7714402275
4.722361180590295,926.3617627736775,925.1560960490891,0.1761781021414134,0.0,0.21532692093660535,0.18229915925734128,0.04744377915855956,1229.745384078509,20833.935892052086
4.732366183091545,926.4819844175344,925.2842246038372,0.17634112444447608,0.0,0.21537651805696967,0.1822487999260082,0.04744257404361184,1229.7094708533075,20845.091446597362
4.742371185592797,926.6013355843787,925.4113836201852,0.17650161253700533,0.0,0.21542532618181806,0.1821992275266995,0.047441365666895635,1229.674103837219,20856.238102817944
4.752376188094047,926.7198366669585,925.5375904375235,0.17665966655380932,0.0,0.21547337639151332,0.1821504109853828,0.04744015403842169,1229.6392613825976,20867.375860073967
4.762381190595297,926.8375076677711,925.6628623626377,0.1768153821959782,0.0,0.2155206983904792,0.18210232060383214,0.04743893916799097,1229.6049228004315,20878.50471812333
4.7723861930965485,926.9543682048663,925.7872166506965,0.17696885096063966,0.0,0.21556732057849115,0.1820549279883367,0.047437721065193825,1229.5710683106558,20889.624677110794
4.782391195597799,927.0704375167771,925.910670488012,0.17712016034523043,0.0,0.21561327011405917,0.182008205986317,0.04743649973940867,1229.5376789979844,20900.735737558764
4.792396198099049,927.1857344661191,926.0332409758893,0.17726939402650604,0.0,0.2156585729699719,0.18196212863077954,0.04743527519980007,1229.5047367731963,20911.837900359882
4.8024012006003,927.3002775450959,926.1549451160902,0.1774166320489204,0.0,0.21570325399174894,0.18191667108186432,0.04743404745531786,1229.472224332403,20922.931166768223
4.812406203101551,927.4140848824898,926.2757997981541,0.17756195101529518,0.0,0.21574733695680479,0.18187180956768056,0.04743281651469736,1229.4401251158158,20934.015538389387
4.822411205602801,927.5271742490759,926.3958217874876,0.17770542425199015,0.0,0.21579084462569992,0.18182752133305563,0.04743158238645886,1229.4084232720306,20945.091017172585
4.832416208104052,927.6395630621005,926.5150277140178,0.17784712195802782,0.0,0.21583379878841252,0.18178378459326233,0.047430345078906505,1229.3771036257801,20956.157605403787
4.842421210605303,927.7512683927391,926.6334340629974,0.17798711137207882,0.0,0.21587622031615425,0.18174057848220398,0.04742910460012933,1229.3461516418254,20967.215305696303
4.852426213106553,927.8623077886629,926.7510570982655,0.17812546284365896,0.0,0.2159181292009066,0.18169788301289602,0.04742786280259608,1229.3155521121355,20978.264120986394
4.862431215607804,927.9726999445727,926.86791295599,0.17826225397493423,0.0,0.2159595445429465,0.1816556790900763,0.04742662468136409,1229.2852882603822,20989.304054558263
4.872436218109055,928.0824612614547,926.9840179361652,0.1783975446916747,0.0,0.21600048462020344,0.18161394844078632,0.047425390568267514,1229.2553471325436,21000.335110024946
4.882441220610305,928.1916076496829,927.099388171871,0.17853139131767634,0.0,0.21604096696864059,0.1815726735338973,0.04742416041898832,1229.2257165533692,21011.357291298937
4.8924462231115555,928.3001546984254,927.214039604354,0.17866384790770096,0.0,0.21608100841861352,0.1815318375437507,0.04742293419034499,1229.1963848381465,21022.37060258468
4.902451225612806,928.408117680474,927.3279879778183,0.17879496634931816,0.0,0.21612062512648147,0.18149142431854723,0.04742171184028317,1229.1673407706767,21033.375048372527
4.912456228114057,928.5155115594255,927.4412488362907,0.1789247964757577,0.0,0.2161598326096469,0.18145141834530848,0.047420493327857687,1229.1385735788735,21044.37063343073
4.9224612306153075,928.6223509964028,927.5538375209011,0.17905338616973068,0.0,0.2161986457787914,0.18141180471764246,0.04741927861321581,1229.110072912315,21055.357362797895
4.932466233116558,928.7286503552525,927.6657691666901,0.17918078145280075,0.0,0.21623707896562072,0.18137256910799904,0.047418067657585626,1229.0818288229161,21066.335241776917
4.942471235617809,928.8344237078479,927.7770586999294,0.17930702657177863,0.0,0.2162751459496876,0.1813336977408479,0.04741686042326386,1229.0538317462508,21077.304275928847
4.9524762381190595,928.9396848412232,927.8877208372966,0.17943216409163273,0.0,0.21631285998724573,0.1812951773638264,0.04741565687359655,1229.0260724814596,21088.26447106523
4.96248124062031,929.0444472633029,927.9977700845567,0.17955623497560713,0.0,0.2163502338361282,0.18125699522286207,0.04741445697296456,1228.9985421739257,21099.215833241753
4.972486243121561,929.1487242073574,928.1072207346591,0.17967927865486424,0.0,0.21638727977736952,0.18121913904055145,0.0474132606867735,1228.9712323002186,21110.158368753026
4.982491245622811,929.2525286381617,928.2160868675378,0.1798013331044073,0.0,0.21642400963878528,0.18118159699258185,0.047412067981437114,1228.9441346516762,21121.09208412598
4.992496248124062,929.3558732581937,928.3243823504072,0.1799224349153355,0.0,0.21646043481741453,0.18114435768529039,0.04741087882436002,1228.9172413187816,21132.016986113256
5.002501250625312,929.458770512465,928.4321208373267,0.18004261935673277,0.0,0.21649656629873945,0.18110741013644568,0.047409693183925454,1228.8905446777824,21142.933081687836
5.012506253126563,929.5612325930016,928.5393157687573,0.18016192043337242,0.0,0.21653241467460477,0.18107074375732907,0.04740851102948401,1228.8640373782114,21153.840378038025
5.022511255627814,929.6632714451639,928.6459803730226,0.18028037094971686,0.0,0.2165679901631009,0.1810343483328536,0.04740733233133513,1228.8377123290513,21164.738882560894
5.032516258129064,929.7648987728561,928.7521276671691,0.18039800256549612,0.0,0.2166033026258286,0.1809982140043006,0.04740615706071252,1228.8115626867157,21175.628602856716
5.042521260630315,929.8661260425607,928.8577704570605,0.18051484584356983,0.0,0.21663836158276328,0.18096233125445627,0.04740498518977394,1228.7855818447015,21186.509546724476
5.052526263131566,929.9669644884789,928.962921338694,0.18063093030087174,0.0,0.21667317622808238,0.18092669089178598,0.04740381669158645,1228.759763422573,21197.38172215642
5.062531265632816,930.0674251181293,929.0675927002325,0.18074628445890628,0.0,0.21670775544585616,0.18089128403474503,0.047402651540109544,1228.734101255045,21208.24513733233
5.072536268134067,930.1675187167567,929.1717967232017,0.1808609358868804,0.0,0.21674210782344758,0.1808561020983801,0.04740148971018288,1228.7085893826568,21219.099800614822
5.082541270635318,930.2672558511138,929.2755453832916,0.180974911240586,0.0,0.21677624166359055,0.18082113678225203,0.04740033117751611,1228.6832220433632,21229.945720545144
5.092546273136568,930.3666468749474,929.378850452978,0.18108823630659004,0.0,0.21681016499812436,0.18078638005670325,0.04739917591867198,1228.6579936629842,21240.78290583769
5.102551275637818,930.4657019336892,929.4817235036317,0.1812009360411558,0.0,0.21684388560008963,0.18075182415076327,0.04739802391105212,1228.6328988467872,21251.61136537516
5.11255627813907,930.564430968113,929.5841759067948,0.18131303460362733,0.0,0.2168774109941006,0.1807174615417775,0.04739687513288702,1228.6079323722686,21262.43110820459
5.12256128064032,930.6628437185734,929.6862188361871,0.18142455539074787,0.0,0.21691074846701064,0.18068328494474298,0.0473957295632234,1228.5830891817366,21273.24214353297
5.13256628314157,930.7609497300191,929.7878632706621,0.18153552107235846,0.0,0.216943905079011,0.18064928730121185,0.047394587181908275,1228.5583643745904,21284.044480722292
5.142571285642822,930.8587583559693,929.8891199963067,0.18164595362176555,0.0,0.21697688767306925,0.1806154617698536,0.04739344796957709,1228.5337532007563,21294.8381292854
5.152576288144072,930.9562787617622,929.9899996079309,0.18175587434242824,0.0,0.21700970288322252,0.18058180171816335,0.04739231190764467,1228.5092510549175,21305.62309888252
5.162581290645322,931.053519929224,930.0905125121361,0.18186530389856084,0.0,0.2170423571440934,0.18054830071294745,0.047391178978290184,1228.4848534698976,21316.399399316677
5.172586293146573,931.1504906608949,930.1906689300902,0.1819742623428787,0.0,0.21707485669951737,0.18051495251169747,0.04739004916444384,1228.460556110663,21327.167040529483
5.182591295647824,931.2471995833357,930.2904788994654,0.1820827691402063,0.0,0.21710720760988142,0.18048175105525308,0.047388922449777084,1228.4363547692178,21337.926032597672
5.192596298149074,931.3436551506163,930.38995227667,0.18219084319086795,0.0,0.21713941575939602,0.18044869046053086,0.047387798818692234,1228.412245359547,21348.676385729563
5.202601300650325,931.4398656487555,930.4890987401978,0.1822985028561853,0.0,0.21717148686402704,0.18041576501259443,0.04738667825630765,1228.3882239121062,21359.41811026079
5.212606303151576,931.5358391992847,930.5879277931697,0.18240576598015792,0.0,0.21720342647823804,0.18038296915791333,0.047385560748446666,1228.364286569132,21370.151216650735
5.222611305652826,931.6315837620874,930.6864487651831,0.18251264990820343,0.0,0.21723524000081626,0.18035029749853795,0.04738444628162946,1228.3404295805917,21380.875715479546
5.232616308154077,931.727107139309,930.7846708154019,0.18261917150844387,0.0,0.21726693268149525,0.18031774478547866,0.04738333484306016,1228.3166492995827,21391.591617444396
5.242621310655328,931.8224169791516,930.882602935619,0.1827253471918018,0.0,0.2172985096272073,0.18028530591245442,0.04738222642061449,1228.2929421779854,21402.298933355814
5.252626313156578,931.917520778855,930.9802539525216,0.18283119292899,0.0,0.21732997580736813,0.18025297591061004,0.04738112100283054,1228.2693047627938,21412.997674134716
5.262631315657829,932.0124258875786,931.0776325299063,0.1829367242666926,0.0,0.21736133605890892,0.1802207499434841,0.047380018578900195,1228.2457336926143,21423.68785080947
5.272636318159079,932.1071395102796,931.1747471720734,0.1830419563459118,0.0,0.21739259509198794,0.18018862330129978,0.0473789191386559,1228.2222256937014,21434.369474512296
5.28264132066033,932.2016687108994,931.2716062265305,0.18314690391775199,0.0,0.217423757494902,0.18015659139605444,0.04737782267256032,1228.1987775765458,21445.042556476194
5.292646323161581,932.2960204148632,931.3682178859927,0.1832515813567924,0.0,0.21745482773824598,0.18012464975736087,0.04737672917169915,1228.175386232983,21455.707108032388
5.302651325662831,932.3902014123247,931.4645901912683,0.18335600267605778,0.0,0.21748581017957277,0.18009279402778872,0.04737563862777031,1228.1520486329568,21466.363140607256
5.312656328164082,932.4842183615445,931.5607310343623,0.18346018154174862,0.0,0.21751670906797976,0.1800610199582796,0.047374551033072546,1228.1287618213362,21477.01066571924
5.3226613306653325,932.578077791575,931.656648160854,0.18356413128571938,0.0,0.21754752854799236,0.18002932340426445,0.047373466380497,1228.1055229152178,21487.64969497616
5.332666333166583,932.6717861046467,931.7523491719788,0.18366786491679093,0.0,0.21757827266308383,0.17999770032214454,0.047372384663520124,1228.0823291014792,21498.28024007291
5.342671335667834,932.7653495795179,931.847841527856,0.18377139513411916,0.0,0.21760894535983957,0.17996614676512893,0.04737130587619209,1228.0591776338908,21508.90231278838
5.3526763381690845,932.8587743743058,931.9431325501756,0.1838747343388278,0.0,0.21763955049157968,0.17993465887961285,0.047370230013127325,1228.036065830602,21519.51592498283
5.362681340670335,932.9520665287101,932.0382294242307,0.18397789464379885,0.0,0.2176700918214058,0.17990323290213173,0.04736915706949804,1228.0129910720218,21530.1210885957
5.372686343171585,933.0452319666687,932.1331392014795,0.1840808878842031,0.0,0.21770057302548088,0.1798718651560827,0.04736808704102548,1227.9899507985465,21540.71781564312
5.3826913456728365,933.1382764993573,932.22786880255,0.18418372562854152,0.0,0.2177309976964694,0.17984055204828545,0.047367019923969515,1227.96694250817,21551.30611821522
5.392696348174087,933.2312058275768,932.3224250195744,0.18428641918785246,0.0,0.2177613693464052,0.17980929006611568,0.04736595571512097,1227.943963754496,21561.886008473917
5.402701350675337,933.3240255437637,932.4168145181121,0.18438897962384054,0.0,0.2177916914092216,0.1797780757749755,0.04736489441179585,1227.9210121449794,21572.457498650896
5.412706353176588,933.4167411348327,932.5110438400758,0.1844914177586445,0.0,0.21782196724379643,0.1797469058152498,0.04736383601182531,1227.8980853388161,21583.020601045126
5.422711355677839,933.5093579846865,932.6051194063045,0.18459374418354246,0.0,0.21785220013666476,0.17971577689959461,0.04736278051354719,1227.8751810450613,21593.575328020586
5.432716358179089,933.6018813761948,932.6990475185418,0.18469596926624887,0.0,0.21788239330429132,0.1796846858106654,0.0473617279158001,1227.8522970210513,21604.12169200439
5.44272136068034,933.6943164933633,932.792834361656,0.18479810315843856,0.0,0.21791254989541495,0.17965362939877358,0.047360678217916424,1227.8294310707795,21614.659705484748
5.452726363181591,933.7866684239615,932.886486006436,0.18490015580402946,0.0,0.21794267299363163,0.1796226045793047,0.0473596314197131,1227.8065810431042,21625.18938100871
5.462731365682841,933.878942161637,932.9800084118066,0.18500213694612952,0.0,0.2179727656195595,0.17959160833055438,0.047358587521484634,1227.7837448302482,21635.710731180257
5.4727363681840915,933.9711426076346,933.0734074265863,0.18510405613298433,0.0,0.2180028307326913,0.17956063769187644,0.04735754652399828,1227.7609203665136,21646.223768658605
5.482741370685343,934.0632745731665,933.1666887920494,0.18520592272513609,0.0,0.21803287123362727,0.17952968976145106,0.04735650842848572,1227.738105626733,21656.728506156167
5.492746373186593,934.1553427816349,933.2598581443306,0.18530774590205223,0.0,0.2180628899661426,0.1794987616942184,0.047355473236635366,1227.71529862484,21667.22495643664
5.5027513756878434,934.2473518703883,933.3529210162961,0.18540953466762924,0.0,0.21809288971890284,0.179467850700164,0.04735444095058704,1227.6924974126762,21677.713132313325
5.512756378189095,934.3393063924914,933.4458828394378,0.18551129785564222,0.0,0.21812287322716237,0.17943695404262086,0.04735341157292653,1227.6697000788158,21688.193046647557
5.522761380690345,934.4312108190032,933.5387489464053,0.18561304413601493,0.0,0.21815284317472136,0.17940606903631365,0.04735238510667743,1227.64690474721,21698.66471234675
5.532766383191595,934.523069540839,933.6315245730533,0.18571478202011,0.0,0.21818280219557598,0.17937519304570937,0.04735136155529488,1227.6241095760442,21709.12814236278
5.542771385692847,934.6148868702581,933.7242148600465,0.18581651986520015,0.0,0.21821275287531156,0.17934432348362464,0.04735034092266146,1227.6013127567705,21719.583349690547
5.552776388194097,934.7066670428136,933.8168248550404,0.1859182658797071,0.0,0.21824269775273772,0.17931345780959165,0.0473493232130805,1227.5785125129764,21730.03034736635
5.562781390695347,934.7984142193093,933.9093595148886,0.18602002812830956,0.0,0.2182726393214828,0.1792825935282644,0.0473483084312691,1227.5557070992816,21740.46914846621
5.572786393196598,934.8901324873632,934.0018237073804,0.18612181453621618,0.0,0.21830258003132663,0.17925172818808682,0.04734729658235336,1227.5328948004135,21750.89976610449
5.582791395697849,934.981825862842,934.0942222128384,0.186223632893071,0.0,0.21833252228941824,0.17922085938007548,0.04734628767186415,1227.5100739303632,21761.32221343254
5.592796398199099,935.0734982918245,934.1865597263651,0.18632549085779102,0.0,0.21836246846178684,0.17918998473630965,0.04734528170573009,1227.4872428313417,21771.736503637138
5.60280140070035,935.1651536522309,934.278840859703,0.18642739596264005,0.0,0.21839242087461355,0.1791591019286602,0.04734427869027189,1227.4643998728977,21782.142649939084
5.612806403201601,935.2567957551192,934.3710701426911,0.18652935561663034,0.0,0.21842238181529225,0.17912820866772947,0.047343278632198914,1227.4415434511839,21792.540665591983
5.622811405702851,935.3484283462744,934.4632520250894,0.18663137710938282,0.0,0.21845235353363443,0.17909730270164687,0.04734228153860377,1227.4186719881222,21802.93056388092
5.632816408204102,935.440055107925,934.5553908785737,0.18673346761512347,0.0,0.21848233824311825,0.17906638181482085,0.047341287416956195,1227.3957839305406,21813.31235812106
5.642821410705353,935.5316796601182,934.6474909983166,0.18683563419599564,0.0,0.21851233812192222,0.17903544382690573,0.047340296275098635,1227.372877749457,21823.68606165648
5.652826413206603,935.6233055619088,934.7395566043482,0.18693788380497303,0.0,0.21854235531383362,0.17900448659189366,0.047339308121243165,1227.34995193945,21834.05168785901
5.662831415707854,935.7149363130079,934.8315918434951,0.1870402232895107,0.0,0.21857239192938996,0.1789735079969741,0.047338322963965354,1227.3270050178696,21844.40925012698
5.672836418209104,935.8065753552216,934.9236007910599,0.18714265939478805,0.0,0.21860245004689222,0.1789425059615213,0.04733734081219931,1227.3040355241385,21854.75876188404
5.682841420710355,935.8982260735821,935.0155874521354,0.18724519876633242,0.0,0.2186325317132231,0.17891147843627628,0.047336361675234674,1227.2810420191818,21865.100236578102
5.692846423211606,935.989891797631,935.1075557631108,0.18734784795285422,0.0,0.2186626389447326,0.17888042340246182,0.04733538556271247,1227.2580230848173,21875.43368768027
5.702851425712856,936.0815758029177,935.1995095934495,0.18745061340942157,0.0,0.2186927737282311,0.17884933887079052,0.04733441248461959,1227.2349773230685,21885.759128683676
5.712856428214107,936.173281312202,935.2914527471089,0.18755350150004907,0.0,0.21872293802179757,0.17881822288065646,0.04733344245128492,1227.2119033556048,21896.076573102477
5.722861430715358,936.2650114964491,935.383388963707,0.18765651849989293,0.0,0.21875313375546465,0.17878707349945108,0.04733247547337698,1227.1887998232692,21906.386034470914
5.732866433216608,936.3567694762046,935.4753219201659,0.18775967059805546,0.0,0.2187833628320957,0.1787558888216866,0.04733151156189877,1227.165665385469,21916.687526342255
5.742871435717859,936.4485583228502,935.5672552322139,0.18786296390014826,0.0,0.21881362712818636,0.17872466696819478,0.04733055072818343,1227.142498719625,21926.98106228783
5.7528764382191095,936.5403810596007,935.659192455567,0.18796640443037566,0.0,0.21884392849451492,0.17869340608547735,0.04732959298389145,1227.1192985207208,21937.26665589613
5.76288144072036,936.6322406625343,935.7511370871614,0.18806999813361677,0.0,0.2188742687567928,0.17866210434505583,0.04732863834100777,1227.0960635008514,21947.5443207719
5.77288644322161,936.7241400618898,935.8430925667185,0.1881737508779637,0.0,0.21890464971645868,0.1786307599426778,0.04732768681183669,1227.072792388677,21957.814070535238
5.7828914457228615,936.8160821431143,935.9350622780048,0.18827766845676333,0.0,0.21893507315131727,0.178599371097679,0.047326738408998655,1227.0494839289802,21968.075918820683
5.792896448224112,936.9080697477095,936.0270495498457,0.1883817565903277,0.0,0.21896554081607247,0.17856793605245028,0.047325793145428174,1227.026136882297,21978.329879276476
5.802901450725362,937.000105674359,936.1190576574909,0.1884860209280544,0.0,0.21899605444299106,0.1785364530717742,0.04732485103436988,1227.0027500244594,21988.575965563676
5.8129064532266135,937.0921926800285,936.2110898239505,0.1885904670505016,0.0,0.2190266157425524,0.1785049204421764,0.04732391208937449,1226.9793221461466,21998.81419135534
5.822911455727864,937.1843334808383,936.3031492210506,0.18869510047104937,0.0,0.21905722640396702,0.17847333647140687,0.0473229763242964,1226.9558520525252,22009.044570335795
5.832916458229114,937.2765307528982,936.3952389704431,0.18879992663746634,0.0,0.21908788809566604,0.1784416994879511,0.047322043753291534,1226.9323385629118,22019.267116199888
5.8429214607303654,937.3687871334135,936.4873621449606,0.18890495093391024,0.0,0.21911860246592793,0.17841000784040378,0.047321114390813074,1226.9087805103418,22029.481842652207
5.852926463231616,937.4611052215988,936.5795217697296,0.18901017868258202,0.0,0.2191493711433958,0.17837825989695194,0.0473201882516084,1226.8851767412098,22039.68876340637
5.862931465732866,937.5534875794077,936.6717208230574,0.18911561514509206,0.0,0.21918019573750402,0.17834645404494875,0.047319265350717545,1226.861526114975,22049.887892184368
5.8729364682341165,937.645936732445,936.7639622375525,0.18922126552404053,0.0,0.2192110778389725,0.17831458869041933,0.047318345703470065,1226.837827503822,22060.079242715845
5.882941470735368,937.7384551709274,936.8562489013029,0.18932713496472584,0.0,0.21924201902034224,0.17828266225752581,0.04731742932548146,1226.814079792288,22070.262828737457
5.892946473236618,937.831045350447,936.9485836588145,0.18943322855648023,0.0,0.2192730208363926,0.1782506731881506,0.047316516232651,1226.790281876979,22080.438663992212
5.9029514757378685,937.9237096926526,937.0409693118431,0.18953955133386757,0.0,0.2193040848245152,0.17821861994152233,0.04731560644116024,1226.7664326663053,22090.606762228872
5.91295647823912,938.0164505861849,937.1334086205504,0.1896461082782811,0.0,0.21933521250521482,0.1781865009937158,0.04731469996746936,1226.7425310801418,22100.767137201317
5.92296148074037,938.1092703874701,937.2259043044853,0.18975290431927985,0.0,0.21936640538252772,0.1781543148372335,0.047313796828314464,1226.718576049536,22110.919802667955
5.9329664832416205,938.2021714213535,937.3184590433602,0.18985994433568118,0.0,0.2193976649443629,0.1781220599806653,0.04731289704070623,1226.694566516473,22121.064772391157
5.942971485742872,938.295155981836,937.4110754779651,0.18996723315679198,0.0,0.21942899266288704,0.17808973494830313,0.04731200062192769,1226.6705014336096,22131.2020601367
5.952976488244122,938.3882263329086,937.5037562111991,0.1900747755637921,0.0,0.21946038999495843,0.17805733827970782,0.0473111075895309,1226.646379763975,22141.331679673203
5.962981490745372,938.4813847092173,937.5965038088973,0.1901825762908238,0.0,0.21949185838246782,0.1780248685293685,0.047310217961335034,1226.6222004807364,22151.453644771595
5.972986493246623,938.5746333166255,937.6893208005257,0.19029064002592286,0.0,0.21952339925262862,0.17799232426641243,0.04730933175542544,1226.5979625669966,22161.567969204614
5.982991495747874,938.6679743329977,937.782209680153,0.19039897141230003,0.0,0.219555014018379,0.17795970407420342,0.04730844899015051,1226.5736650155181,22171.674666746305
5.992996498249124,938.7614099088898,937.8751729073128,0.19050757504944407,0.0,0.21958670407872743,0.17792700654999655,0.04730756968411932,1226.5493068284848,22181.77375117151
6.003001500750375,938.8549421680997,937.9682129076874,0.19061645549400316,0.0,0.2196184708190278,0.17789423030466317,0.047306693856200406,1226.5248870173107,22191.865236255413
6.013006503251626,938.9485732082633,938.0613320738472,0.19072561726074624,0.0,0.21965031561128,0.17786137396239063,0.047305821525520264,1226.5004046024342,22201.94913577307
6.023011505752876,939.0423051015715,938.1545327661485,0.19083506482369242,0.0,0.2196822398144846,0.17782843616032795,0.04730495271146036,1226.475858613071,22212.025463498947
6.033016508254127,939.1361398953516,938.2478173134576,0.19094480261701982,0.0,0.21971424477492696,0.17779541554830197,0.04730408743365544,1226.4512480870212,22222.094233206513
6.043021510755377,939.2300796125418,938.341188013742,0.19105483503582207,0.0,0.21974633182641318,0.17776231078858123,0.04730322571199282,1226.4265720705032,22232.155458667796
6.053026513256628,939.3241262523345,938.4346471348733,0.1911651664371051,0.0,0.21977850229058282,0.17772912055556409,0.04730236756661005,1226.4018296179404,22242.209153652955
6.063031515757879,939.4182817907783,938.5281969153845,0.1912758011407117,0.0,0.21981075747719878,0.17769584353548873,0.04730151301789257,1226.3770197917597,22252.255331929904
6.073036518259129,939.5125481812626,938.6218395650727,0.19138674343007037,0.0,0.21984309868438104,0.1776624784261995,0.04730066208647275,1226.3521416622307,22262.294007263918
6.08304152076038,939.6069273549965,938.7155772655987,0.19149799755293428,0.0,0.21987552719883754,0.17762902393691657,0.04729981479322892,1226.327194307307,22272.325193417233
6.093046523261631,939.7014212216257,938.8094121712597,0.19160956772232607,0.0,0.21990804429616098,0.1775954787879391,0.04729897115928267,1226.3021768124197,22282.3489041487
6.103051525762881,939.796031669736,938.9033464096237,0.1917214581172924,0.0,0.21994065124106496,0.17756184171040945,0.04729813120599738,1226.2770882703164,22292.365153213435
6.113056528264132,939.8907605672606,938.9973820820356,0.1918336728835252,0.0,0.21997334928757747,0.1775281114461196,0.04729729495497776,1226.251927780926,22302.37395436243
6.123061530765383,939.9856097620051,939.0915212642768,0.19194621613415636,0.0,0.2200061396792901,0.1774942867472625,0.04729646242806798,1226.226694451188,22312.375321342235
6.133066533266633,940.0805810821731,939.1857660072275,0.19205909195054655,0.0,0.22003902364960565,0.1774603663761844,0.04729563364734963,1226.2013873948808,22322.36926789467
6.143071535767883,940.1756763367933,939.2801183373999,0.19217230438292923,0.0,0.22007200242193922,0.17742634910518398,0.0472948086351407,1226.1760057324836,22332.35580775645
6.153076538269135,940.2708973161035,939.3745802574225,0.1922858574509586,0.0,0.22010507720988906,0.17739223371634164,0.04729398741399524,1226.150548591058,22342.33495465889
6.163081540770385,940.3662457920793,939.469153746703,0.19239975514452862,0.0,0.22013824921749375,0.17735801900126247,0.047293170006700865,1226.1250151040695,22352.30672232762
6.173086543271635,940.4617235188762,939.5638407619821,0.19251400142442443,0.0,0.22017151963943635,0.17732370376087228,0.04729235643627749,1226.09940441125,22362.271124482282
6.1830915457728866,940.5573322331765,939.6586432377735,0.19262860022282519,0.0,0.22020488966120108,0.1772892868052613,0.0472915467259769,1226.0737156584853,22372.228174836262
6.193096548274137,940.6530736546182,939.7535630868987,0.19274355544393829,0.0,0.2202383604592715,0.1772547669534855,0.04729074089928159,1226.0479479976811,22382.177887096383
6.203101550775387,940.7489494862541,939.848602201067,0.19285887096468252,0.0,0.2202719332013455,0.1772201430333525,0.04728993897990264,1226.022100586614,22392.120274962672
6.2131065532766385,940.8449614149248,939.9437624513437,0.19297455063524108,0.0,0.22030560904650798,0.1771854138812486,0.04728914099177903,1225.9961725888118,22402.05535212808
6.223111555777889,940.9411111115799,940.0390456885518,0.19309059827953245,0.0,0.2203393891453771,0.17715057834199247,0.04728834695907737,1225.970163173453,22411.983132278263
6.233116558279139,941.0374002317178,940.1344537438281,0.19320701769584375,0.0,0.22037327464030362,0.17711563526863647,0.047287556906189965,1225.9440715152296,22421.903629091263
6.24312156078039,941.1338304157777,940.2299884291115,0.19332381265744478,0.0,0.2204072666655633,0.1770805835222741,0.0472867708577335,1225.9178967942123,22431.816856237376
6.253126563281641,941.2304032894382,940.3256515375249,0.19344098691297634,0.0,0.22044136634747738,0.17704542197191936,0.047285988838548815,1225.8916381957704,22441.722827378864
6.263131565782891,941.3271204639723,940.4214448438123,0.1935585441870129,0.0,0.2204755748045888,0.1770101494943311,0.04728521087370005,1225.8652949104467,22451.62155616971
6.273136568284142,941.4239835366408,940.5173701048416,0.19367648818061403,0.0,0.22050989314783526,0.17697476497383974,0.04728443698847284,1225.8388661338408,22461.513056255455
6.283141570785393,941.5209940910237,940.6134290600164,0.19379482257183853,0.0,0.22054432248071024,0.17693926730218654,0.047283667208373514,1225.8123510664966,22471.397341272997
6.293146573286643,941.6181536972878,940.7096234316125,0.1939135510161053,0.0,0.22057886389937476,0.17690365537841177,0.04728290155912918,1225.7857489138257,22481.274424850322
6.3031515757878935,941.7154639125583,940.8059549252441,0.19403267714676392,0.0,0.22061351849283634,0.17686792810867596,0.04728214006668609,1225.7590588859812,22491.144320606352
6.313156578289145,941.8129262812588,940.9024252302905,0.1941522045756033,0.0,0.220648287343109,0.17683208440609996,0.0472813827572084,1225.732280197752,22501.00704215078
6.323161580790395,941.9105423353786,940.9990360202343,0.19427213689321954,0.0,0.22068317152532727,0.17679612319065102,0.04728062965707795,1225.7054120684802,22510.862603083864
6.3331665832916455,942.0083135947582,941.0957889530143,0.19439247766944792,0.0,0.220718172107881,0.17676004338900791,0.04727988079289386,1225.6784537219676,22520.711016996214
6.343171585792896,942.1062415674382,941.1926856714651,0.19451323045390234,0.0,0.22075329015258488,0.17672384393439172,0.04727913619147083,1225.6514043863626,22530.55229746868
6.353176588294147,942.2043277499413,941.2897278036736,0.19463439877635644,0.0,0.2207885267147978,0.1766875237664463,0.04727839587983837,1225.6242632940734,22540.386458072167
6.3631815907953975,942.302573627512,941.3869169632727,0.1947559861471367,0.0,0.22082388284354454,0.17665108183111697,0.04727765988524103,1225.597029681686,22550.213512367474
6.373186593296648,942.4009806744175,941.4842547498221,0.19487799605753428,0.0,0.220859359581645,0.1766145170805209,0.04727692823513717,1225.5697027898736,22560.0334739051
6.383191595797899,942.4995503542494,941.5817427491854,0.195000431980291,0.0,0.22089495796586686,0.17657782847279488,0.047276200957197714,1225.542281863293,22569.846356225178
6.393196598299149,942.5982841201669,941.6793825338322,0.1951232973699494,0.0,0.2209306790270345,0.1765410149719865,0.047275478079305856,1225.5147661505077,22579.652172857288
6.4032016008004,942.6971834151269,941.7771756631242,0.19524659566320102,0.0,0.22096652379013684,0.17650407554794595,0.047274759629557156,1225.4871549039137,22589.45093732026
6.413206603301651,942.7962496721849,941.8751236836946,0.19537033027933898,0.0,0.22100249327447002,0.17646700917618358,0.047274045636257866,1225.45944737964,22599.24266312215
6.423211605802901,942.8954843147467,941.9732281297609,0.19549450462063572,0.0,0.22103858849375552,0.1764298148377521,0.04727333612792419,1225.4316428374689,22609.02736376005
6.433216608304152,942.9948887567774,942.071490523382,0.19561912207267296,0.0,0.22107481045624217,0.1763924915191443,0.047272631133282624,1225.4037405407637,22618.80505271997
6.443221610805402,943.0944644030537,942.1699123747736,0.19574418600472354,0.0,0.2211111601648256,0.17635503821217344,0.04727193068126906,1225.3757397563866,22628.575743476693
6.453226613306653,943.1942126494258,942.2684951826362,0.1958696997701474,0.0,0.221147638617173,0.17631745391384915,0.04727123480102752,1225.347639754612,22638.339449493724
6.463231615807904,943.294134883036,942.3672404344254,0.19599566670673904,0.0,0.2211842468058309,0.17627973762626917,0.04727054352190992,1225.3194398090525,22648.09618422314
6.473236618309154,943.3942324825125,942.4661496065895,0.1961220901370161,0.0,0.22122098571831456,0.17624188835653007,0.04726985687347635,1225.2911391965963,22657.845961105468
6.483241620810405,943.4945068182282,942.5652241648941,0.19624897336863073,0.0,0.2212578563372372,0.17620390511659806,0.04726917488549361,1225.2627371973185,22667.5887935696
6.493246623311656,943.5949592525243,942.6644655646982,0.19637631969471792,0.0,0.22129485964041942,0.17616578692319987,0.047268497587934465,1225.234233094405,22677.32469503272
6.503251625812906,943.6955911398967,942.7638752511833,0.196504132394192,0.0,0.2213319966009804,0.17612753279773108,0.04726782501097794,1225.2056261740888,22687.05367890018
6.513256628314157,943.7964038272039,942.8634546596099,0.19663241473207074,0.0,0.22136926818743913,0.17608914176615525,0.04726715718500885,1225.1769157255803,22696.775758565396
6.523261630815408,943.8973986538997,942.9632052156082,0.19676116995983917,0.0,0.22140667536382894,0.17605061285888918,0.04726649414061649,1225.1481010409882,22706.4909474098
6.533266633316658,943.9985769522295,943.0631283354176,0.19689040131577912,0.0,0.22144421908980014,0.17601194511070054,0.0472658359085944,1225.1191814152482,22716.19925880275
6.543271635817908,944.0999400473984,943.1632254260911,0.19702011202523598,0.0,0.22148190032070209,0.17597313756062558,0.04726518251994073,1225.090156146066,22725.90070610142
6.55327663831916,944.2014892577897,943.2634978857681,0.19715030530096175,0.0,0.2215197200076909,0.17593418925186138,0.0472645340058571,1225.0610245338416,22735.59530265074
6.56328164082041,944.3032258951662,943.363947103921,0.19728098434345065,0.0,0.22155767909783508,0.17589509923166058,0.047263890397747775,1225.0317858815988,22745.28306178337
6.57328664332166,944.405151264837,943.4645744615582,0.1974121523412116,0.0,0.22159577853419915,0.17585586655124724,0.047263251727219915,1225.0024394949248,22754.963996819562
6.583291645822912,944.5072666658327,943.5653813314385,0.19754381247105135,0.0,0.22163401925593187,0.17581649026572896,0.0472626180260834,1224.9729846819093,22764.638121067113
6.593296648324162,944.6095733911144,943.6663690783278,0.19767596789843564,0.0,0.2216724021983799,0.17577696943398322,0.04726198932634957,1224.9434207530658,22774.305447821327
6.603301650825412,944.7120727277428,943.7675390592074,0.19780862177774916,0.0,0.22171092829316855,0.1757373031185762,0.047261365660230974,1224.913747021278,22783.965990364974
6.613306653326664,944.8147659570346,943.8688926234584,0.19794177725258752,0.0,0.22174959846829184,0.17569749038567328,0.047260747060141765,1224.8839628017322,22793.61976196817
6.623311655827914,944.9176543547411,943.9704311130863,0.1980754374560221,0.0,0.2217884136481958,0.17565753030495537,0.04726013355869681,1224.854067411865,22803.266775888347
6.633316658329164,945.020739191236,944.0721558629454,0.19820960551095212,0.0,0.22182737475388856,0.17561742194950877,0.04725952518871085,1224.8240601712819,22812.90704537026
6.643321660830415,945.1240217316631,944.1740682009201,0.19834428453034772,0.0,0.22186648270301557,0.17557716439575022,0.047258921983198664,1224.7939404017097,22822.54058364588
6.653326663331666,945.2275032360868,944.2761694481044,0.19847947761749196,0.0,0.22190573840993438,0.1755367567233517,0.047258323975375154,1224.763707426942,22832.167403934356
6.663331665832916,945.3311849596747,944.3784609190258,0.1986151878663208,0.0,0.22194514278582161,0.17549619801513372,0.04725773119865416,1224.7333605727629,22841.78751944198
6.673336668334167,945.4350681528575,944.4809439218368,0.1987514183617023,0.0,0.22198469673876,0.17545548735697822,0.04725714368664807,1224.7028991668926,22851.40094336219
6.683341670835418,945.5391540614565,944.5836197584705,0.1988881721796349,0.0,0.222024401173799,0.1754146238377677,0.04725656147316835,1224.6723225389392,22861.007688875485
6.693346673336668,945.6434439268493,944.6864897248378,0.19902545238755506,0.0,0.22206425699305105,0.1753736065492892,0.04725598459222482,1224.6416300203339,22870.607769149374
6.703351675837919,945.7479389861334,944.789555111025,0.19916326204464968,0.0,0.2221042650957896,0.17533243458613598,0.04725541307802483,1224.6108209442655,22880.20119733842
6.71335667833917,945.852640472259,944.8928172014566,0.19930160420205725,0.0,0.2221444263785113,0.1752911070456456,0.04725484696497325,1224.579894645633,22889.787986584182
6.72336168084042,945.9575496141666,944.9962772750515,0.19944048190314084,0.0,0.22218474173502004,0.17524962302781555,0.047254286287672836,1224.5488504609893,22899.36815001513
6.7333666833416705,946.0626676369407,945.0999366054174,0.19957989818375274,0.0,0.22222521205651039,0.17520798163521975,0.047253731080923116,1224.5176877284837,22908.941700746702
6.743371685842921,946.167995761958,945.2037964610208,0.1997198560725165,0.0,0.22226583823165566,0.1751661819729208,0.04725318137971988,1224.4864057877992,22918.508651881275
6.753376688344172,946.2735352070077,945.3078581053333,0.19986035859104506,0.0,0.22230662114667482,0.17512422314840262,0.04725263721925568,1224.4550039801068,22928.069016508103
6.7633816908454225,946.3792871864305,945.412122796994,0.20000140875418984,0.0,0.2223475616854099,0.17508210427149304,0.047252098634919484,1224.4234816480114,22937.62280770331
6.773386693346673,946.4852529112657,945.5165917899882,0.2001430095703238,0.0,0.2223886607294152,0.17503982445427485,0.04725156566229563,1224.3918381354908,22947.17003852992
6.783391695847924,946.5914335893759,945.6212663337957,0.20028516404157246,0.0,0.22242991915802873,0.17499738281101399,0.04725103833716379,1224.360072787844,22956.71072203783
6.7933966983491745,946.6978304255679,945.7261476735276,0.20042787516403826,0.0,0.22247133784844098,0.1749547784580907,0.04725051669549951,1224.3281849516452,22966.244871263763
6.803401700850425,946.8044446217315,945.8312370500958,0.20057114592807054,0.0,0.22251291767577988,0.1749120105139147,0.04725000077347319,1224.2961739746834,22975.77249923127
6.813406703351676,946.9112773769689,945.9365357003663,0.20071497931850615,0.0,0.22255465951318604,0.17486907809884983,0.04724949060744943,1224.26403920591,22985.293618950804
6.8234117058529264,947.0183298877093,946.0420448572916,0.2008593783148859,0.0,0.2225965642318791,0.17482598033514757,0.047248986233987544,1224.2317799953946,22994.808243419615
6.833416708354177,947.125603347831,946.1477657500529,0.201004345891698,0.0,0.22263863270123327,0.17478271634687131,0.047248487689841405,1224.1993956942695,23004.316385621787
