z,T,t,fs,fl,x,y,w,rhob,p
0.0,634.4167938491647,505.0,0.0,0.0,0.1609076818741879,0.23690030033427364,0.04773139922046228,1268.0,14330.0
0.010005002501250625,642.8903977667018,518.0167932934113,2.677893064185509e-05,0.0,0.1609159895755317,0.23689199263274568,0.04773139922017104,1267.994209323878,14341.232464007344
0.02001000500250125,651.0474221377926,530.5281453078188,5.7610395134953944e-05,0.0,0.1609255545053166,0.2368824277025425,0.04773139921950954,1267.9875423276328,14352.690324791725
0.030015007503751877,658.9025158148432,542.5589217021634,9.267724946399385e-05,0.0,0.16093643339113187,0.2368715488158395,0.04773139921810575,1267.979959470282,14364.365529781728
0.0400200100050025,666.4694373429459,554.1323461305095,0.00013213559662404164,0.0,0.16094867466065954,0.23685930754453752,0.047731399215300015,1267.9714269957517,14376.250272360601
0.05002501250625312,673.7611264769158,565.2701453840215,0.0001761161858958273,0.0,0.1609623188756333,0.23684566332620186,0.047731399209983705,1267.9619166302095,14388.33698642253
0.060030015007503754,680.7897669971973,575.9926755644507,0.0002247260093823117,0.0,0.16097739922694176,0.2368305829688191,0.047731399200378215,1267.9514052367056,14400.61834114044
0.07003501750875438,687.5668450063557,586.3190375211434,0.0002780500896740751,0.0,0.16099394208896847,0.23681404009627613,0.047731399183748524,1267.939874428454,14413.08723502032
0.080040020010005,694.10320028525,596.2671776675777,0.0003361532781857304,0.0,0.1610119675771766,0.23679601459054692,0.04773139915604179,1267.92731017976,14425.736790306988
0.09004502251125562,700.4090741992364,605.8539808441067,0.0003990820932141291,0.0,0.16103149011795273,0.23677649202157422,0.047731399111453486,1267.9137024283207,14438.560346833228
0.10005002501250625,706.4941520167426,615.0953517488847,0.00046686647233194436,0.0,0.16105251899180614,0.23675546310374682,0.047731399041915805,1267.8990446960063,14451.551456302013
0.11005502751375687,712.36760257908,624.0062904115763,0.0005395214843645523,0.0,0.1610750588639739,0.23673292316493075,0.04773139893652235,1267.883333718346,14464.703876123429
0.12006003001500751,718.0381134312958,632.6009586126593,0.0006170489147944799,0.0,0.16109911027570123,0.23670887165478366,0.04773139878088745,1267.8665691013505,14478.011563728222
0.13006503251625812,723.513923908736,640.8927417985128,0.0006994387739308073,0.0,0.16112467011152704,0.23668331167703954,0.04773139855646677,1267.8487529950103,14491.468670516655
0.14007003501750875,728.802854505038,648.8943037411173,0.0007866706690657748,0.0,0.16115173202433972,0.23665624956399858,0.04773139823983842,1267.829889796186,14505.06953630264
0.15007503751875936,733.9123346550303,656.6176377642964,0.0008787150872915629,0.0,0.16118028683271493,0.23662769447873355,0.04773139780198225,1267.8099858708183,14518.808683452704
0.16008004002001,738.8494274465618,664.0741120942284,0.000975534549233799,0.0,0.16121032287820347,0.23659765805734279,0.047731397207554115,1267.7890493040434,14532.680811522609
0.17008504252126064,743.6208530983835,671.2745125743834,0.001077084674492476,0.0,0.16124182635526368,0.23656615407858447,0.04773139641420029,1267.7670896694287,14546.680791633671
0.18009004502251125,748.2330098823753,678.2290805757,0.0011833151323480879,0.0,0.16127478160562728,0.23653319816909713,0.047731395371903386,1267.74411782303,14560.803661338643
0.19009504752376188,752.6919940820159,684.9475488716472,0.0012941705115383309,0.0,0.1613091713876292,0.23649880753370683,0.04773139402240877,1267.7201457149993,14575.044619261798
0.2001000500250125,757.0036178088357,691.4391735491364,0.001409591092045151,0.0,0.1613449771151947,0.23646300071611814,0.04773139229871459,1267.6951862224107,14589.399020213805
0.21010505252626313,761.1734260642176,697.7127643401985,0.0015295135457685538,0.0,0.16138217907486438,0.23642579738163766,0.04773139012467548,1267.669252997531,14603.862370107965
0.22011005502751374,765.2067119937407,703.7767116560707,0.001653871555713896,0.0,0.16142075661761743,0.23638721812515634,0.047731387414693474,1267.642360333756,14618.430321332364
0.23011505752876438,769.1085315495659,709.639012390892,0.0017825963742654008,0.0,0.161460688331916,0.23634728429799434,0.04773138407354439,1267.614523044795,14633.098667945163
0.24012006003001501,772.8837166179837,715.3072929613461,0.001915617314983705,0.0,0.16150195219621596,0.23630601785534466,0.04773137999630461,1267.5857563582838,14647.8633413047
0.25012506253126565,776.5368876822109,720.7888313847383,0.0020528621930476125,0.0,0.16154452571567185,0.23626344121961254,0.047731375068422045,1267.5560758205816,14662.720405540469
0.26013006503251623,780.0724651740724,726.0905770238254,0.002194257712263125,0.0,0.1615883860423566,0.23621957716030623,0.04773136916588993,1267.5254972131813,14677.6660534367
0.27013506753376687,783.4946804608389,731.2191695785472,0.0023397298091969694,0.0,0.16163351008230262,0.23617444868719376,0.04773136215556076,1267.4940364784654,14692.696602171634
0.2801400700350175,786.8075857057853,736.1809560952082,0.0024892039548905353,0.0,0.16167987458946778,0.23612807895659646,0.04773135389555573,1267.4617096546888,14707.808489446808
0.29014507253626814,790.0150634426856,740.9820073851322,0.0026426054209824764,0.0,0.16172745624876944,0.2360804911886928,0.047731344235799646,1267.4285328187243,14722.998269484673
0.3001500750375187,793.1208351777194,745.6281327484324,0.0027998595125337776,0.0,0.16177623174885988,0.23603170859513206,0.04773133301863595,1267.3945220360572,14738.262609393758
0.31015507753876936,796.1284697676556,750.1248942346753,0.002960891771392177,0.0,0.16182617784585115,0.23598175431576315,0.04773132007954438,1267.3596933172007,14753.598285413105
0.32016008004002,799.0413909540202,754.4776194463066,0.003125628153713435,0.0,0.16187727141907626,0.23593065136336525,0.047731305247918396,1267.3240625797375,14769.0021795024
0.33016508254127064,801.8628847230277,758.6914139792874,0.003293995183114656,0.0,0.16192948951935465,0.23587842257592076,0.047731288347916824,1267.2876456156687,14784.471275820839
0.3401700850425213,804.5961059296804,762.7711726041493,0.0034659200840159985,0.0,0.16198280941114437,0.23582509057502504,0.047731269199352555,1267.250458063067,14800.002657530653
0.35017508754377186,807.2440847870081,766.7215901635353,0.0036413308948093862,0.0,0.1620372086084739,0.23577067773054425,0.047731247618624795,1267.2125153821196,14815.593503497812
0.3601800900450225,809.8097327110097,770.5471713756024,0.003820156566058788,0.0,0.16209266490624213,0.2357152061299136,0.04773122341966535,1267.1738328344086,14831.241085297197
0.37018509254627313,812.2958480621335,774.252240416776,0.004002327041964992,0.0,0.1621491564063381,0.23565869755262475,0.04773119641489825,1267.1344254658268,14846.942764122494
0.38019009504752377,814.7051213203038,777.8409495496693,0.004187773330726789,0.0,0.16220666154030897,0.2356011734481597,0.04773116641619235,1267.094308091881,14862.695987981386
0.39019509754877435,817.0401401815593,781.3172875803454,0.0043764275609752,0.0,0.1622651590876951,0.2355426549182495,0.04773113323579949,1267.0534952860075,14878.498288802284
0.400200100050025,819.3033941547714,784.6850874787066,0.004568223030171575,0.0,0.16232462819184895,0.2354831627016325,0.047731096687267834,1267.0120013696055,14894.347279808195
0.4102051025512756,821.4972791000096,787.948033868071,0.0047630942413705545,0.0,0.1623850483721113,0.23542271716243213,0.04773105658631729,1266.9698404045691,14910.240652808294
0.42021010505252626,823.6241013241157,791.109669778293,0.0049609769343691166,0.0,0.16244639953421094,0.2353613382802858,0.04773101275167628,1266.9270261870101,14926.176175739529
0.4302151075537769,825.6860816339419,794.1734032998856,0.005161808107090766,0.0,0.16250866197758548,0.23529904564351833,0.047730965005862255,1266.883572243064,14942.151690131583
0.4402201100550275,827.6853589960654,797.1425135875987,0.0053655260332585945,0.0,0.16257181640150817,0.23523585844347775,0.04773091317591435,1266.8394918254687,14958.165108805737
0.4502251125562781,829.6239941669584,800.0201567904227,0.0055720702718313935,0.0,0.16263584390859767,0.23517179547144537,0.04773085709405662,1266.7947979118899,14974.21441350231
0.46023011505752875,831.5039729723078,802.8093714049036,0.00578138167421495,0.0,0.16270072600759175,0.2351068751162482,0.047730796598308756,1266.7495032036945,14990.297652726807
0.4702351175587794,833.3272095669831,805.5130835752022,0.005993402384487047,0.0,0.16276644461388445,0.235041115364059,0.04773073153301947,1266.7036201261985,15006.412939529502
0.48024012006003003,835.0955493812648,808.1341118802384,0.0062080758385510346,0.0,0.1628329820496843,0.23497453379854158,0.04773066174934658,1266.6571608291092,15022.558449489483
0.4902451225612806,836.8107720558205,810.6751720838109,0.006425346757329465,0.0,0.1629003210422521,0.23490714760286607,0.047730587105656606,1266.6101371882205,15038.732418636591
0.5002501250625313,838.4745940953309,813.1388814270973,0.00664516113977429,0.0,0.16296844472203711,0.23483897356179279,0.04773050746787362,1266.5625608071127,15054.9331415645
0.5102551275637819,840.0886715172788,815.5277628970751,0.006867466250762173,0.0,0.163037336619156,0.23477002806536396,0.04773042270974832,1266.514443019919,15071.158969485818
0.5202601300650325,841.6546022477563,817.8442490854601,0.007092210609483137,0.0,0.1631069806599845,0.23470032711245298,0.04773033271308134,1266.4657948939607,15087.408308465865
0.5302651325662832,843.1739285174812,820.09068603386,0.007319343973412801,0.0,0.16317736116231193,0.23462988631570325,0.04773023736787086,1266.4166272332902,15103.67961760233
0.5402701350675337,844.648139029771,822.2693367115049,0.007548817323287027,0.0,0.1632484628307725,0.23455872090616564,0.04773013657242091,1266.3669505820028,15119.971407371902
0.5502751375687843,846.0786711326598,824.3823844873448,0.00778058284423993,0.0,0.16332027075102462,0.23448684573914352,0.04773003023338022,1266.316775228335,15136.282237926407
0.560280140070035,847.4669127849672,826.4319362716055,0.008014593908320634,0.0,0.16339277038433025,0.2344142752996177,0.04772991826574931,1266.2661112084509,15152.610717544954
0.5702851425712856,848.8142045295449,828.4200256581273,0.008250805053656747,0.0,0.16346594756103974,0.23434102370872748,0.04772980059282578,1266.214968310915,15168.955501038983
0.5802901450725363,850.1218412799295,830.3486157686079,0.008489171965268128,0.0,0.1635397884745671,0.23426710472974543,0.04772967714612557,1266.163356080801,15185.315288303098
0.5902951475737869,851.3910741164822,832.2196021026363,0.008729651452932431,0.0,0.16361427967440378,0.2341925317749798,0.04772954786525077,1266.1112838244023,15201.688822821923
0.6003001500750375,852.6231119131925,834.03481511827,0.008972201430889804,0.0,0.16368940805968896,0.23411731791211077,0.04772941269774118,1266.0587606135423,15218.074890313188
0.6103051525762881,853.8191229756874,835.7960228222643,0.00921678089494071,0.0,0.16376516087193085,0.23404147587134627,0.04772927159888066,1266.0057952904183,15234.472317329808
0.6203101550775387,854.9802365252623,837.5049331162004,0.009463349901506836,0.0,0.1638415256883299,0.23396501805197092,0.047729124531494346,1265.9523964720195,15250.879969989237
0.6303151575787894,856.1075441953518,839.163196155196,0.009711869544374401,0.0,0.16391849041434975,0.2338879565296235,0.047728971465709064,1265.8985725550235,15267.29675266456
0.64032016008004,857.202101387728,840.772406485028,0.009962301933473777,0.0,0.16399604327691775,0.2338103030629427,0.04772881237871052,1265.8443317202514,15283.721606794525
0.6503251625812906,858.26492864199,842.3341051940151,0.010214610171588007,0.0,0.1640741728169575,0.233732069100863,0.047728647254471485,1265.7896819375571,15300.15350965789
0.6603301650825413,859.2970128770344,843.8497818633541,0.010468758333133713,0.0,0.1641528678825661,0.2336532657892667,0.0477284760834821,1265.734630970265,15316.59147325889
0.6703351675837919,860.299308646705,845.3208765342761,0.010724711443879983,0.0,0.1642321176224631,0.2335739039773505,0.047728298862457906,1265.679186379398,15333.03454317946
0.6803401700850426,861.2727398528305,846.7487823077404,0.01098244010686252,0.0,0.16431191292085143,0.23349399278258354,0.047728115594053884,1265.623354523211,15349.481797537544
0.6903451725862931,862.2183684111194,848.135085089455,0.01124327745205502,0.0,0.164392667368718,0.23341311861906294,0.047727926286320166,1265.566847130095,15365.932347164193
0.7003501750875437,863.1372627620435,849.4813757330734,0.011508905600331652,0.0,0.1644749028292373,0.23333075963086272,0.04772773095072979,1265.5093004645294,15382.385343020285
0.7103551775887944,864.0298941514632,850.7883941596251,0.011776384583946814,0.0,0.16455770724231256,0.2332478278892175,0.047727529604906255,1265.4513502748125,15398.839959307961
0.720360180090045,864.8970615591236,852.0573439911307,0.012045600079429872,0.0,0.16464104516324882,0.23316435885354128,0.047727322272135594,1265.3930212950324,15415.29539404741
0.7303651825912957,865.7395483993961,853.2894040727705,0.012316522590187761,0.0,0.1647249074674465,0.23308036166597754,0.04772710898017083,1265.334319918767,15431.750872834411
0.7403701850925463,866.558112942556,854.4857149689316,0.012589123534990272,0.0,0.1648092853179463,0.23299584518366917,0.047726889760939306,1265.2752523439478,15448.20564802708
0.7503751875937968,867.3534891998507,855.6473803374845,0.012863375110792719,0.0,0.16489417012261873,0.23291081802138802,0.047726664650255976,1265.2158246023655,15464.658997862165
0.7603801900950475,868.1263877401229,856.7754681959461,0.0131392502739436,0.0,0.16497955352809288,0.23282528855743373,0.047726433687551244,1265.156042563584,15481.110225650405
0.7703851925962981,868.8774965201284,857.8710122060936,0.013416722720390998,0.0,0.1650654274133755,0.23273926493984265,0.047726196915598824,1265.0959119390725,15497.558658948588
0.7803901950975487,869.6074816384571,858.9350128402979,0.013695766867715646,0.0,0.1651517838840492,0.23265275509202693,0.04772595438025834,1265.0354382859484,15514.003648805532
0.7903951975987994,870.3169881027685,859.9684385660186,0.01397635783609616,0.0,0.1652386152661421,0.23256576671874363,0.04772570613022031,1264.9746270109542,15530.444568986406
0.80040020010005,871.0066405266201,860.97222692154,0.0142584714310324,0.0,0.16532591410055542,0.23247830731151503,0.04772545221676578,1264.9134833740598,15546.880815266102
0.8104052026013007,871.6770438391984,861.947285609483,0.014542084125085864,0.0,0.16541367313719027,0.23239038415435262,0.047725192693530115,1264.8520124922827,15563.31180470246
0.8204102051025512,872.3287839300923,862.8944934901936,0.014827173041307092,0.0,0.16550188532961002,0.23230200432895412,0.04772492761628082,1264.7902193431503,15579.736974974005
0.8304152076038018,872.9624283065159,863.8147015924263,0.015113715935756238,0.0,0.16559054382942634,0.2322131747201804,0.04772465704270101,1264.7281087683582,15596.155783698947
0.8404202101050525,873.578526690541,864.7087340317498,0.015401691181638155,0.0,0.1656796419811984,0.23212390202102826,0.04772438103218617,1264.6656854770924,15612.567707814474
0.8504252126063031,874.1776116282989,865.5773889456975,0.015691077752599123,0.0,0.16576917331707675,0.23203419273786138,0.047724099645647285,1264.6029540495313,15628.972242938602
0.8604302151075538,874.7601990437266,866.4214393437791,0.015981855207565385,0.0,0.16585913155193777,0.23194405319516007,0.04772381294532665,1264.5399189400227,15645.368902788357
0.8704352176088044,875.3267888037851,867.2416339736391,0.016274003674805207,0.0,0.1659495105782824,0.23185348954050972,0.047723520994620516,1264.4765844804338,15661.757218581772
0.880440220110055,875.8778652323692,868.0386981085813,0.016567503837460508,0.0,0.16604030446160176,0.2317625077491308,0.04772322385791336,1264.4129548831893,15678.136738492482
0.8904452226113057,876.4138976351802,868.8133343506104,0.016862336918358346,0.0,0.16613150743552574,0.23167111362863024,0.04772292160041947,1264.3490342444677,15694.507027089312
0.9004502251125562,876.9353407770891,869.5662233607783,0.01715848466622075,0.0,0.16622311389741415,0.23157931282331626,0.04772261428803513,1264.2848265471023,15710.867664824978
0.9104552276138069,877.442635369953,870.2980246043944,0.017455929341205816,0.0,0.16631511840374788,0.23148711081871884,0.04772230198719804,1264.2203356636312,15727.218247510886
0.9204602301150575,877.9362085164028,871.0093770289752,0.017754653701777565,0.0,0.16640751566593986,0.23139451294569569,0.047721984764756545,1264.1555653590644,15743.558385837761
0.9304652326163081,878.4164741635765,871.7008997563898,0.018054640990954076,0.0,0.1665003005459606,0.2313015243847288,0.04772166268784596,1264.0905192937898,15759.887704883426
0.9404702351175588,878.8838335160228,872.3731927127245,0.018355874923816816,0.0,0.16659346805236142,0.2312081501698282,0.04772133582377366,1264.025201026211,15776.205843663387
0.9504752376188094,879.3386754580486,873.026837271672,0.018658339674441304,0.0,0.1666870133361257,0.2311143951926129,0.047721004239911165,1263.9596140155138,15792.512454669453
0.9604802401200601,879.7813769381734,873.6623968402051,0.01896201986402374,0.0,0.16678093168689692,0.231020264206019,0.04772066800359396,1263.8937616241788,15808.80720344838
0.9704852426213106,880.2123033625408,874.280417457112,0.01926690054846848,0.0,0.16687521852904608,0.23092576182817365,0.04772032718202815,1263.8276471206157,15825.089768169433
0.9804902451225612,880.6318089531405,874.881428338004,0.019572967207108657,0.0,0.16696986941809647,0.23083089254591518,0.04771998184220379,1263.7612736815515,15841.359839229295
0.9904952476238119,881.0402371145075,875.465942432532,0.0198802057309242,0.0,0.16706488003699832,0.23073566071846818,0.04771963205081486,1263.694644394538,15857.617118846721
1.0005002501250626,881.4379207677263,876.0344569319305,0.020188602411832558,0.0,0.167160246192741,0.23064007058078376,0.04771927787418501,1263.6277622602242,15873.861320692082
1.0105052526263132,881.8251826924467,876.5874537881257,0.020498143931510587,0.0,0.16725596381282626,0.23054412624702403,0.04771891937819964,1263.5606301947385,15890.092169507414
1.0205102551275638,882.2023358385053,877.1254001867197,0.02080881735123135,0.0,0.16735202894205972,0.23044783171373023,0.04771855662824276,1263.4932510318483,15906.309400759033
1.0305152576288144,882.569683645109,877.6487490309147,0.02112061010126336,0.0,0.16744843773921234,0.23035119086312547,0.047718189689140184,1263.4256275252242,15922.51276028137
1.040520260130065,882.9275203317465,878.1579393825815,0.021433509971229402,0.0,0.16754518647398325,0.2302542074661182,0.04771781862510639,1263.357762350494,15938.702003951217
1.0505252626313157,883.2761311962313,878.6533969136627,0.021747505100056897,0.0,0.16764227152384098,0.23015688518543145,0.047717443499697504,1263.2896581073915,15954.876897353866
1.0605302651325663,883.615792886434,879.135534317735,0.022062583966835064,0.0,0.16773968937114855,0.23005922757844977,0.04771706437576736,1263.2213173217078,15971.03721547762
1.070535267633817,883.9467736787308,879.6047517313219,0.022378735381290683,0.0,0.1678374366001755,0.22996123810018287,0.04771668131542914,1263.1527424473304,15987.182742400815
1.0805402701350675,884.2693337319569,880.0614371181506,0.022695948475120374,0.0,0.1679355098943777,0.2298629201059634,0.04771629438001959,1263.0839358680983,16003.313271005356
1.090545272636318,884.5837253476788,880.505966662595,0.02301421269296659,0.0,0.1680339060335712,0.22976427685425352,0.047715903630068425,1263.0148998997354,16019.42860268331
1.1005502751375686,884.8901932076503,880.9387051286374,0.023333517784202434,0.0,0.16813262189135916,0.22966531150920014,0.04771550912526972,1262.9456367916127,16035.528547068245
1.1105552776388194,885.188974617211,881.3600062274768,0.023653853794383558,0.0,0.168231654432459,0.22956602714329252,0.0477151109244582,1262.876148728583,16051.612921760185
1.12056028014007,885.4802997274219,881.7702129530356,0.023975211057463478,0.0,0.16833100071026844,0.2294664267397821,0.047714709085587,1262.806437832651,16067.681552073649
1.1305652826413206,885.764391762783,882.1696579255972,0.024297580187697888,0.0,0.16843065786433878,0.22936651319519838,0.04771430366570995,1262.736506164717,16083.734270779822
1.1405702851425712,886.0414672291323,882.5586637055444,0.0246209520722693,0.0,0.16853062311807246,0.22926628932164053,0.04771389472096501,1262.666355726159,16099.770917870232
1.1505752876438218,886.3117361267809,882.9375431147372,0.02494531786362105,0.0,0.1686308937763344,0.22916575784915832,0.047713482306561715,1262.595988460487,16115.791340315049
1.1605802901450726,886.5754021451695,883.3065995300326,0.025270668972470843,0.0,0.16873146722327456,0.22906492142792192,0.04771306647676958,1262.525406254844,16131.795391841453
1.1705852926463232,886.8326628624341,883.6661271839748,0.02559699706055265,0.0,0.16883234092006977,0.2289637826304755,0.04771264728491014,1262.4546109415749,16147.782932707047
1.1805902951475737,887.0837099277352,884.0164114395197,0.02592429403399959,0.0,0.1689335124028647,0.22886234395379118,0.04771222478334952,1262.3836042996493,16163.753829491987
1.1905952976488243,887.328729248188,884.3577290714819,0.02625255203647289,0.0,0.16903497928063713,0.22876060782140123,0.04771179902349455,1262.3123880561486,16179.707954886566
1.200600300150075,887.5679011597093,884.6903485237762,0.02658176344289516,0.0,0.16913673923325112,0.22865857658534305,0.047711370055788974,1262.2409638876165,16195.64518749626
1.2106053026513257,887.8014006021721,885.0145301729541,0.026911920852946563,0.0,0.1692387900094389,0.2285562525281763,0.04771093792971291,1262.1693334214672,16211.565411642596
1.2206103051525763,888.0293972795508,885.3305265691675,0.027243017085130498,0.0,0.1693411294249599,0.22845363786482376,0.04771050269378235,1262.0974982372663,16227.4685171803
1.2306153076538269,888.2520558240961,885.6385826830247,0.027575045170617835,0.0,0.16944375536069367,0.22835073474448017,0.04771006439555149,1262.0254598680642,16243.354399310612
1.2406203101550775,888.4695359464982,885.9389361313872,0.027907998347627985,0.0,0.16954666576089858,0.22824754525235433,0.047709623081614805,1261.9532198016136,16259.222958409817
1.250625312656328,888.6819925898175,886.231817408682,0.028241870055602903,0.0,0.16964985863140938,0.2281440714114751,0.04770917879761203,1261.880779481629,16275.074099854217
1.2606303151575788,888.8895760703335,886.51745009856,0.02857665392988715,0.0,0.16975333203799087,0.2280403151843403,0.04770873158823245,1261.8081403089423,16290.907733859302
1.2706353176588294,889.0924322219114,886.7960510907086,0.02891234379621444,0.0,0.16985708410463393,0.22793627847462503,0.04770828149722194,1261.7353036426969,16306.723775315697
1.28064032016008,889.290702528154,887.0678307793244,0.02924893366567106,0.0,0.1699611130119989,0.2278319631287423,0.047707828567389185,1261.6622708014415,16322.522143638309
1.2906453226613306,889.4845242578353,887.3329932663979,0.029586417729478533,0.0,0.17006541699580513,0.22772737093745912,0.047707372840614465,1261.5890430642635,16338.30276261254
1.3006503251625812,889.6740305889259,887.5917365478754,0.029924790354225423,0.0,0.1701699943453588,0.22762250363737346,0.047706914357857476,1261.5156216718217,16354.065560252791
1.310655327663832,889.8593507356802,887.8442527043146,0.030264046076930565,0.0,0.17027484340203072,0.22751736291244293,0.0477064531591675,1261.4420078274227,16369.810468658332
1.3206603301650826,890.0406100650655,888.0907280755519,0.030604179600529146,0.0,0.17037996255786444,0.2274119503953826,0.0477059892836926,1261.3682026980005,16385.537423880574
1.3306653326663331,890.2179302160462,888.3313434395589,0.030945185789201538,0.0,0.17048535025413727,0.22730626766911088,0.04770552276969086,1261.2942074151317,16401.246365787945
1.3406703351675837,890.3914292089071,888.566274176369,0.031287059664100336,0.0,0.17059100498004412,0.22720031626807238,0.047705053654540676,1261.2200230759674,16416.93723794148
1.3506753376688343,890.5612215572398,888.7956904359093,0.03162979639893059,0.0,0.17069692527133715,0.22709409767960587,0.04770458197475297,1261.1456507441944,16432.60998746808
1.360680340170085,890.7274183706189,889.0197572918838,0.03197339131590517,0.0,0.1708031097090813,0.22698761334519565,0.04770410776598223,1261.0710914509157,16448.264564943842
1.3706853426713357,890.8901274597581,889.2386348992976,0.032317839881562865,0.0,0.17090955691836845,0.22688086466176582,0.04770363106303943,1260.996346195562,16463.90092427534
1.3806903451725863,891.0494534329654,889.452478638949,0.03266313770293997,0.0,0.17101626556714034,0.2267738529828645,0.047703151899903797,1260.921415946726,16479.51902259012
1.3906953476738368,891.205497794904,889.6614392653084,0.033009280523613814,0.0,0.17112323436497326,0.22666657961988784,0.047702670309736205,1260.8463016430264,16495.118820125448
1.4007003501750874,891.3583590372225,889.8656630422239,0.033356264220078785,0.0,0.17123046206196485,0.2265590458432008,0.047702186324891385,1260.7710041938967,16510.700280125653
1.4107053526763382,891.508132731328,890.0652918817766,0.033704084798003325,0.0,0.17133794744758524,0.22645125288329482,0.04770169997693176,1260.695524480403,16526.2633687378
1.4207103551775888,891.6549116135577,890.2604634717575,0.03405273838879959,0.0,0.17144568934962412,0.22634320193184862,0.04770121129663995,1260.6198633559923,16541.80805491545
1.4307153576788394,891.7987856723437,890.4513114060771,0.03440222124608236,0.0,0.1715536866331048,0.22623489414282302,0.04770072031403282,1260.5440216472657,16557.33431032087
1.44072036018009,891.9398422282687,890.6379653045374,0.03475252974242224,0.0,0.1716619381992885,0.22612633063346477,0.04770022705837427,1260.4680001546894,16572.84210923478
1.4507253626813406,892.0781660159752,890.8205509353284,0.03510366036599546,0.0,0.17177044298464764,0.22601751248534216,0.0476997315581893,1260.3917996533232,16588.331428464735
1.4607303651825914,892.2138392594256,890.9991903275846,0.03545560971751082,0.0,0.17187919995992398,0.22590844074529498,0.04769923384127697,1260.315420893496,16603.802247260446
1.470735367683842,892.3469417488841,891.1740018864683,0.0358083745070403,0.0,0.17198820812915816,0.22579911642641412,0.047698733934724485,1260.2388646014958,16619.25454722794
1.4807403701850925,892.4775509116803,891.3451004989621,0.03616195155111038,0.0,0.17209746652879876,0.22568954050894025,0.0476982318649201,1260.1621314802092,16634.688312250164
1.490745372686343,892.60574188457,891.5125976420059,0.036516337769703706,0.0,0.17220697422678485,0.2255797139411906,0.0476977276575672,1260.0852222097735,16650.103528406536
1.5007503751875937,892.7315875802813,891.6766014819486,0.03687153018350615,0.0,0.17231673032170342,0.22546963764040961,0.04769722133769716,1260.008137448181,16665.500183898508
1.5107553776888443,892.855158755541,891.8372169761726,0.03722752591107021,0.0,0.17242673394192176,0.22535931249364488,0.04769671292968321,1259.930877831902,16680.87826897417
1.520760380190095,892.976524073663,891.9945459665996,0.03758432216620945,0.0,0.17253698424479055,0.2252487393585527,0.04769620245725319,1259.8534439764503,16696.23777585844
1.5307653826913457,893.0957501685081,892.1486872752082,0.03794191625531512,0.0,0.17264748041582367,0.22513791906422664,0.047695689943503275,1259.7758364769763,16711.578698682453
1.5407703851925962,893.2129017033585,892.2997367919609,0.03830030557489,0.0,0.17275822166794425,0.22502685241195933,0.047695175410910465,1259.698055908804,16726.9010334181
1.5507753876938468,893.3280414310602,892.4477875645947,0.0386594876090099,0.0,0.17286920724070937,0.22491554017602655,0.04769465888134609,1259.620102827987,16742.204777811836
1.5607803901950974,893.4412302494109,892.5929298813139,0.03901945992698953,0.0,0.17298043639959676,0.22480398310440808,0.04769414037608812,1259.5419777718228,16757.48993132337
1.5707853926963482,893.5525272577204,892.7352513552067,0.039380220180981175,0.0,0.1730919084352716,0.22469218191952936,0.0476936199158343,1259.463681259376,16772.756495063586
1.5807903951975988,893.6619898089228,892.874837002024,0.03974176610376539,0.0,0.173203622662912,0.2245801373189435,0.047693097520714225,1259.3852137919655,16788.004471737095
1.5907953976988494,893.7696735627745,893.0117693195542,0.04010409550647943,0.0,0.17331557842151568,0.22446784997603292,0.04769257321030221,1259.306575853661,16803.233865584112
1.6008004002001,893.8756325348902,893.1461283607895,0.04046720627652626,0.0,0.17342777507326174,0.22435532054065477,0.04769204700362897,1259.227767911741,16818.44468232653
1.6108054027013505,893.9799191467816,893.2779918085657,0.04083109637542564,0.0,0.17354021200285522,0.22424254963980453,0.04769151891919422,1259.1487904171672,16833.636929113538
1.6208104052026013,894.0825842720056,893.4074350443988,0.04119576383683506,0.0,0.17365288861692335,0.22412953787822684,0.04769098897497803,1259.0696438050159,16848.810614471047
1.630815407703852,894.1836772832345,893.5345312186793,0.04156120676451693,0.0,0.1737658043433955,0.2240162858390431,0.04769045718845299,1258.9903284949253,16863.96574825075
1.6408204102051025,894.2832460956894,893.6593513154412,0.041927423330465494,0.0,0.17387895863093245,0.2239027940843296,0.04768992357659531,1258.910844891507,16879.10234158273
1.650825412706353,894.3813372114248,893.7819642183825,0.042294411772983785,0.0,0.17399235094833979,0.2237890631557111,0.04768938815589657,1258.8311933847676,16894.220406827724
1.6608304152076037,894.4779957602082,893.9024367718117,0.04266217039491084,0.0,0.17410598078402773,0.2236750935749081,0.04768885094237449,1258.7513743504983,16909.31995753276
1.6708354177088545,894.5732655411863,894.0208338427492,0.04303069756180256,0.0,0.17421984764545706,0.22356088584429817,0.04768831195158425,1258.6713881506746,16924.401008386405
1.680840420210105,894.667189061367,894.1372183782828,0.04339999170025378,0.0,0.1743339510586275,0.22344644044743384,0.04768777119862894,1258.5912351338245,16939.463575177182
1.6908454227113556,894.7598075748242,894.2516514639852,0.04377005129617743,0.0,0.17444829056755387,0.22333175784957357,0.047687228698170436,1258.5109156354072,16954.50767475172
1.7008504252126062,894.8511611189236,894.3641923778957,0.04414087489321647,0.0,0.17456286573378224,0.22321683849817187,0.04768668446443956,1258.430429978161,16969.53332497574
1.7108554277138568,894.9412885512161,894.4748986454774,0.04451246109111596,0.0,0.17467767613589433,0.2231016828233816,0.04768613851124655,1258.349778472463,16984.540544694886
1.7208604302151076,895.0302275835419,894.5838260904259,0.04488480854421998,0.0,0.17479272136904983,0.2229862912385179,0.04768559085199072,1258.2689614166563,16999.529353698177
1.7308654327163582,895.1180148167492,894.6910288863761,0.04525791595993171,0.0,0.17490800104451773,0.2228706641405331,0.047685041499670684,1258.187979097392,17014.499772681305
1.7408704352176088,895.2046857728064,894.7965596047277,0.04563178209729076,0.0,0.17502351478924313,0.22275480191045577,0.047684490466893645,1258.1068317899405,17029.45182321244
1.7508754377188593,895.2902749274743,894.9004692632957,0.04600640576551646,0.0,0.1751392622454042,0.22263870491384022,0.0476839377658851,1258.0255197585109,17044.38552769786
1.76088044022011,895.374815740543,895.0028073713322,0.046381785822661295,0.0,0.17525524307000223,0.2225223735011817,0.047683383408497856,1257.9440432565482,17059.30090934988
1.7708854427213607,895.458340686583,895.1036219753041,0.04675792117423291,0.0,0.1753714569344425,0.2224058080083418,0.047682827406221345,1257.8624025270362,17074.197992154728
1.7808904452226113,895.5408812834173,895.202959701278,0.04713481077191954,0.0,0.1754879035241465,0.22228900875694144,0.04768226977019027,1257.7805978027789,17089.076800842493
1.7908954477238619,895.6224681210651,895.300865797997,0.04751245361228657,0.0,0.1756045825381557,0.22217197605476297,0.04768171051119349,1257.6986293066843,17103.93736085705
1.8009004502251125,895.7031308885538,895.397384176784,0.04789084873557005,0.0,0.17572149368876425,0.22205471019612244,0.04768114963968237,1257.6164972520335,17118.77969832791
1.810905452726363,895.7828984011628,895.492557452082,0.04826999522444364,0.0,0.1758386367011445,0.22193721146224973,0.04768058716577925,1257.5342018427489,17133.603840042106
1.8209104552276139,895.8617986256744,895.5864269790225,0.048649892202876736,0.0,0.17595601131299934,0.22181948012164107,0.04768002309928546,1257.4517432736475,17148.40981341782
1.8309154577288644,895.9398587060191,895.6790328915769,0.04903053883496796,0.0,0.17607361727420798,0.2217015164304185,0.047679457449689426,1257.3691217306973,17163.197646478064
1.840920460230115,896.0171049870555,895.7704141379326,0.049411934323864364,0.0,0.17619145434649722,0.2215833206326635,0.04767889022617435,1257.2863373912542,17177.967367825982
1.8509254627313656,896.0935630387137,895.8606085163968,0.04979407791065792,0.0,0.17630952230310598,0.22146489296075705,0.047678321437625924,1257.2033904243058,17192.719006620286
1.8609304652326162,896.1692576783912,895.9496527087084,0.050176968873362454,0.0,0.17642782092847456,0.2213462336356955,0.04767775109263966,1257.1202809906968,17207.45259255208
1.870935467733867,896.2442129936817,896.0375823138287,0.050560606525869786,0.0,0.17654635001792726,0.22122734286741222,0.04767717919952835,1257.0370092433573,17222.168155821873
1.8809404702351176,896.3184523634708,896.124431879311,0.05094499021698126,0.0,0.17666510937737814,0.22110822085507634,0.04767660576632899,1256.9535753275186,17236.865727117936
1.8909454727363681,896.3919984793324,896.2102349331045,0.05133011932942033,0.0,0.17678409882303112,0.2209888677873973,0.04767603080080992,1256.8699793809278,17251.545337594795
1.9009504752376187,896.4648733654018,896.2950240130938,0.05171599327891579,0.0,0.17690331818110136,0.22086928384290763,0.047675454310477414,1256.7862215340524,17266.20701885295
1.9109554777388693,896.5370983985182,896.3788306970351,0.052102611513267574,0.0,0.17702276728753144,0.22074946919025082,0.047674876302582526,1256.7023019102835,17280.850802918776
1.9209604802401201,896.608694326946,896.4616856303747,0.05248997351147911,0.0,0.17714244598772788,0.22062942398844917,0.04767429678412739,1256.618220626129,17295.47672222557
1.9309654827413707,896.6796812893394,896.5436185544257,0.052878078782873365,0.0,0.17726235413629263,0.22050914838717608,0.0476737157618717,1256.5339777914069,17310.08480959473
1.9409704852426213,896.7500788323796,896.6246583325662,0.053266926866271595,0.0,0.17738249159677363,0.22038864252700943,0.04767313324233871,1256.4495735094263,17324.675098218042
1.9509754877438719,896.8199059286302,896.7048329767632,0.05365651732915714,0.0,0.17750285824141096,0.22026790653968947,0.04767254923182146,1256.3650078771732,17339.247621640094
1.9609804902451224,896.8891809931534,896.7841696722444,0.05404684976689784,0.0,0.17762345395090057,0.22014694054835857,0.04767196373638847,1256.2802809854793,17353.802413741698
1.970985492746373,896.9579219003247,896.862694802465,0.05443792380195503,0.0,0.17774427861415415,0.2200257446678048,0.04767137676188966,1256.1953929191982,17368.339508723475
1.9809904952476238,897.0261459994856,896.9404339723441,0.05482973908314742,0.0,0.17786533212807568,0.21990431900468954,0.04767078831396178,1256.1103437573674,17382.858941090326
1.9909954977488744,897.0938701307791,897.0174120317668,0.055222295284902675,0.0,0.17798661439733407,0.21978266365777763,0.047670198398034026,1256.025133573372,17397.360745636102
2.001000500250125,897.1611106398987,897.0936530974691,0.055615592106560564,0.0,0.17810812533415185,0.21966077871815257,0.04766960701933327,1255.9397624350993,17411.84495742913
2.0110055027513756,897.2278833929997,897.1691805751594,0.056009629271664856,0.0,0.17822986485808984,0.21953866426943475,0.04766901418288932,1255.8542304050943,17426.311611797842
2.0210105052526264,897.2942037905977,897.2440171801312,0.056404406527303656,0.0,0.1783518328958473,0.21941632038798475,0.04766841989353992,1255.7685375407054,17440.760744317282
2.0310155077538767,897.3600867816137,897.3181849580881,0.056799923643439304,0.0,0.17847402938105822,0.21929374714311012,0.04766782415593581,1255.682683894233,17455.192390795663
2.0410205102551275,897.4255468764699,897.3917053045557,0.057196180412283894,0.0,0.17859645425410187,0.2191709445972578,0.047667226974545444,1255.5966695130644,17469.60658726177
2.0510255127563783,897.4905981603196,897.4645989844859,0.05759317664766528,0.0,0.17871910746191041,0.2190479128062095,0.04766662835365973,1255.5104944398167,17484.00336995242
2.0610305152576287,897.55525430539,897.5368861505403,0.057990912184435674,0.0,0.17884198895778947,0.21892465181926427,0.047666028297396607,1255.424158712465,17498.382775300695
2.0710355177588795,897.6195285834447,897.6085863615432,0.05838938687787196,0.0,0.1789650987012359,0.21880116167942312,0.04766542680970557,1255.3376623644751,17512.744839924235
2.08104052026013,897.6834338774181,897.6797185997021,0.05878860060311547,0.0,0.179088436657768,0.21867744242356196,0.04766482389437192,1255.251005424928,17527.089600614236
2.0910455227613807,897.7469826931562,897.7503012879781,0.059188553254604724,0.0,0.17921200279875327,0.2185534940826063,0.0476642195550211,1255.1641879186434,17541.417094324563
2.1010505252626315,897.8101871703856,897.8203523063036,0.059589244745544855,0.0,0.17933579710124742,0.218429316681695,0.04766361379512278,1255.0772098662978,17555.727358161446
2.111055527763882,897.8730590937774,897.8898890079331,0.05999067500737075,0.0,0.17945981954783152,0.21830491024034554,0.04766300661799491,1254.9900712845415,17570.020429373355
2.1210605302651326,897.9356099032887,897.9589282347184,0.060392843989244806,0.0,0.17958407012645938,0.2181802747726091,0.04766239802680766,1254.9027721861116,17584.29634534138
2.131065532766383,897.9978507045904,898.0274863324973,0.06079575165754859,0.0,0.17970854883030365,0.2180554102872271,0.04766178802458721,1254.8153125799424,17598.555143569778
2.141070535267634,898.0597922788232,898.0955791654791,0.06119939799540743,0.0,0.1798332556576113,0.21793031678777786,0.0476611766142195,1254.7276924712694,17612.796861677023
2.151075537768884,898.1214450924252,898.1632221307297,0.0616037830022092,0.0,0.17995819061155768,0.21780499427282496,0.04766056379845389,1254.6399118617378,17627.021537386972
2.161080540270135,898.1828193063376,898.2304301717177,0.062008906693154,0.0,0.18008335370011003,0.21767944273605586,0.04765994957990663,1254.5519707494996,17641.229208520548
2.1710855427713858,898.2439247852728,898.2972177919473,0.06241476909879877,0.0,0.1802087449358892,0.21755366216642266,0.04765933396106439,1254.4638691293155,17655.41991298751
2.181090545272636,898.3047711064023,898.3635990677137,0.06282137026463067,0.0,0.18033436433604003,0.21742765254827312,0.047658716944287534,1254.375606992648,17669.593688778685
2.191095547773887,898.3653675681005,898.4295876609323,0.0632287102506361,0.0,0.18046021192210096,0.2173014138614841,0.047658098531813464,1254.2871843277576,17683.75057395833
2.2011005502751373,898.4257231981481,898.495196831148,0.0636367891308965,0.0,0.18058628771988125,0.2171749460815856,0.047657478725759754,1254.1986011197896,17697.89060665687
2.211105552776388,898.4858467619858,898.5604394476073,0.06404560699318027,0.0,0.18071259175933707,0.21704824917988697,0.04765685752812728,1254.1098573508664,17712.013825063834
2.221110555277639,898.5457467704654,898.6253280005641,0.06445516393855992,0.0,0.18083912407445552,0.21692132312359472,0.0476562349408032,1254.020953000171,17726.12026742108
2.2311155577788893,898.6054314876444,898.6898746126361,0.06486546008102566,0.0,0.18096588470313726,0.21679416787593167,0.04765561096556398,1253.931888044033,17740.209972016208
2.24112056028014,898.6649089381162,898.7540910494469,0.06527649554712259,0.0,0.18109287368708663,0.21666678339624892,0.04765498560407813,1253.842662456007,17754.282977176266
2.2511255627813904,898.7241869143784,898.8179887303078,0.06568827047558475,0.0,0.18122009107170037,0.2165391696401384,0.047654358857909127,1253.753276206954,17768.339321261672
2.2611305652826412,898.7832729837693,898.8815787382313,0.06610078501699138,0.0,0.18134753690596367,0.21641132655953915,0.047653730728518015,1253.6637292651185,17782.379042660337
2.271135567783892,898.8421744954412,898.9448718299766,0.06651403933342019,0.0,0.18147521124234467,0.21628325410284394,0.04765310121726617,1253.5740215962026,17796.402179782
2.2811405702851424,898.900898586934,899.0078784454694,0.0669280335981215,0.0,0.18160311413669586,0.21615495221499986,0.04765247032541772,1253.4841531634395,17810.408771052797
2.291145572786393,898.9594521907813,899.0706087172439,0.06734276799518991,0.0,0.18173124564815435,0.21602642083760942,0.0476518380541422,1253.3941239276667,17824.39885491005
2.3011505752876436,899.0178420407492,899.1330724793012,0.06775824271925515,0.0,0.1818596058390481,0.21589765990902618,0.0476512044045169,1253.3039338473907,17838.37246979717
2.3111555777888944,899.0760746781077,899.1952792759819,0.06817445797517106,0.0,0.18198819477480144,0.21576866936445005,0.047650569377529296,1253.2135828788594,17852.32965415885
2.321160580290145,899.1341564575606,899.2572383702898,0.06859141397772225,0.0,0.18211701252384652,0.2156394491360183,0.0476499329740793,1253.1230709761246,17866.270446436356
2.3311655827913955,899.192093553212,899.3189587522248,0.06900911095132939,0.0,0.18224605915753342,0.21550999915289595,0.04764929519498159,1253.032398091108,17880.19488506308
2.3411705852926463,899.249891964217,899.3804491466008,0.06942754912977082,0.0,0.1823753347500459,0.21538031934136193,0.04764865604096773,1252.941564173662,17894.103008460195
2.3511755877938967,899.3075575204709,899.4417180208635,0.06984672875590309,0.0,0.18250483937831666,0.21525040962489508,0.04764801551268837,1252.8505691716318,17907.99485503254
2.3611805902951475,899.3650958880133,899.5027735924281,0.07026665008139672,0.0,0.18263457312194709,0.2151202699242555,0.047647373610715284,1252.7594130309128,17921.87046316461
2.3711855927963983,899.4225125744683,899.563623836008,0.07068731336647091,0.0,0.1827645360631269,0.2149899001575666,0.0476467303355434,1252.6680956955095,17935.729871216772
2.3811905952976486,899.4798129342298,899.6242764904913,0.07110871887964268,0.0,0.18289472828655787,0.21485930024039218,0.04764608568759279,1252.5766171075916,17949.573117521566
2.3911955977988995,899.5370021736888,899.6847390658024,0.07153086689747512,0.0,0.18302514987937765,0.2147284700858141,0.047645439667210604,1252.4849772075493,17963.400240380262
2.40120060030015,899.5940853562312,899.745018849339,0.07195375770433877,0.0,0.1831558009310872,0.21459740960450602,0.04764479227467289,1252.3931759340444,17977.211278059425
2.4112056028014006,899.6510674072812,899.8051229123857,0.07237739159217249,0.0,0.1832866815334783,0.21446611870480684,0.04764414351018646,1252.3012132240644,17991.006268787783
2.4212106053026514,899.7079531191481,899.8650581161255,0.07280176886025656,0.0,0.18341779178056491,0.21433459729279075,0.047643493373890684,1252.2090890129725,18004.78525075309
2.431215607803902,899.764747155923,899.924831117623,0.07322688981498511,0.0,0.18354913176851367,0.2142028452723376,0.04764284186585917,1252.1168032345581,18018.548262099248
2.4412206103051526,899.8214540582093,899.9844483754258,0.07365275476965027,0.0,0.1836807015955789,0.21407086254519905,0.04764218898610149,1252.0243558210827,18032.295340923498
2.451225612806403,899.8780782479104,900.0439161551296,0.07407936404422535,0.0,0.18381250136203653,0.2139386490110658,0.04764153473456484,1251.9317467033295,18046.026525273766
2.4612306153076537,899.9346240328849,900.1032405345794,0.07450671796515913,0.0,0.18394453117012174,0.21380620456763066,0.047640879111135605,1251.838975810648,18059.741853146144
2.4712356178089045,899.9910956116702,900.1624274090266,0.07493481686516905,0.0,0.1840767911239663,0.21367352911065257,0.04764022211564096,1251.7460430709993,18073.441362482517
2.481240620310155,900.0474970781033,900.2214824959395,0.07536366108304474,0.0,0.18420928132953884,0.21354062253401696,0.047639563747850396,1251.652948411,18087.12509116826
2.4912456228114057,900.1038324260297,900.280411339759,0.07579325096345073,0.0,0.18434200189458502,0.21340748472979693,0.04763890400747721,1251.5596917559656,18100.793077030143
2.501250625312656,900.1601055539419,900.3392193163187,0.07622358685673811,0.0,0.18447495292857038,0.21327411558831078,0.04763824289417998,1251.466273029952,18114.445357834327
2.511255627813907,900.2163202697238,900.3979116372044,0.07665466911875592,0.0,0.18460813454262323,0.2131405149981805,0.04763758040756397,1251.372692155797,18128.081971284468
2.5212606303151577,900.2724802953676,900.456493353785,0.07708649811067042,0.0,0.18474154684947955,0.21300668284638768,0.047636916547182544,1251.2789490551595,18141.702955019973
2.531265632816408,900.3285892718152,900.514969361172,0.07751907419878395,0.0,0.1848751899634283,0.2128726190183287,0.04763625131253854,1251.1850436485604,18155.30834661439
2.541270635317659,900.3846507638166,900.5733444018566,0.0779523977543612,0.0,0.1850090640002584,0.2127383233978691,0.04763558470308562,1251.090975855421,18168.8981835739
2.551275637818909,900.4406682649429,900.6316230692636,0.07838646915345468,0.0,0.18514316907720607,0.2126037958673967,0.04763491671822954,1250.9967455941005,18182.47250333595
2.56128064032016,900.4966452026638,900.6898098109848,0.07882128877673697,0.0,0.1852775053129037,0.2124690363078738,0.04763424735732949,1250.9023527819336,18196.031343268023
2.571285642821411,900.552584943612,900.7479089319141,0.07925685700933185,0.0,0.18541207282732874,0.2123340445988889,0.04763357661969936,1250.8077973352672,18209.57474066655
2.581290645322661,900.6084907989708,900.8059245970644,0.07969317424065163,0.0,0.18554687174175416,0.21219882061870712,0.04763290450460898,1250.7130791694976,18223.10273275591
2.591295647823912,900.6643660300896,900.8638608342642,0.08013024086423316,0.0,0.1856819021786988,0.21206336424432062,0.047632231011285324,1250.618198199105,18236.615356687624
2.6013006503251623,900.7202138542849,900.921721536535,0.08056805727757894,0.0,0.18581716426187914,0.21192767535149765,0.04763155613891378,1250.5231543376892,18250.11264953965
2.611305652826413,900.7760374509223,900.9795104643284,0.0810066238819969,0.0,0.18595265811616069,0.21179175381483178,0.04763087988663933,1250.4279474980058,18263.594648315877
2.621310655327664,900.831839967756,901.0372312474329,0.08144594108244432,0.0,0.18608838386751037,0.21165559950779045,0.047630202253567705,1250.3325775919984,18277.06138994569
2.6313156578289143,900.8876245276118,901.0948873867203,0.08188600928737025,0.0,0.1862243416429491,0.211519212302763,0.047629523238766666,1250.2370445308356,18290.512911283782
2.641320660330165,900.9433942354142,901.1524822555463,0.08232682890856098,0.0,0.18636053157050447,0.21138259207110882,0.04762884284126705,1250.141348224944,18303.949249110046
2.6513256628314155,900.9991521856299,901.2100191009663,0.08276840036098353,0.0,0.18649695377916353,0.21124573868320526,0.04762816106006405,1250.045488584043,18317.370440129733
2.6613306653326663,901.0549014701571,901.2675010445871,0.08321072406263164,0.0,0.18663360839882578,0.2111086520084953,0.047627477894118336,1249.949465517178,18330.77652097367
2.671335667833917,901.1106451867201,901.3249310832052,0.08365380043436875,0.0,0.18677049556025582,0.21097133191553596,0.04762679334235726,1249.853278932755,18344.167528198825
2.6813406703351674,901.166386447829,901.3823120890572,0.08409762989977272,0.0,0.18690761539503575,0.21083377827204616,0.04762610740367605,1249.7569287385777,18357.543498288913
2.6913456728364182,901.2221283903493,901.4396468098278,0.08454221288497724,0.0,0.18704496803551748,0.21069599094495559,0.0476254200769389,1249.660414841878,18370.90446765534
2.7013506753376686,901.2778741857768,901.4969378682414,0.08498754981851302,0.0,0.18718255361477434,0.2105579698004537,0.047624731360980326,1249.563737149354,18384.250472638305
2.7113556778389194,901.3336270512508,901.5541877613801,0.08543364113114592,0.0,0.18732037226655174,0.21041971470403975,0.04762404125460626,1249.4668955672046,18397.58154950819
2.72136068034017,901.3893902614348,901.6113988595548,0.08588048725571298,0.0,0.1874584241252177,0.21028122552057318,0.047623349756595414,1249.369890001166,18410.897734467173
2.7313656828414206,901.4451671612844,901.6685734048704,0.08632808862695474,0.0,0.1875967093257117,0.21014250211432542,0.04762265686570042,1249.272720356548,18424.199063651147
2.7413706853426714,901.5009611798773,901.725713509316,0.08677644568134445,0.0,0.18773522800349296,0.21000354434903276,0.04762196258064923,1249.1753865382732,18437.48557313194
2.7513756878439217,901.5567758453075,901.7828211525206,0.08722555885691198,0.0,0.18787398029448693,0.20986435208795023,0.0476212669001464,1249.0778884509139,18450.75729891984
2.7613806903451725,901.6126148008611,901.8398981790044,0.08767542859306386,0.0,0.1880129663350305,0.20972492519390754,0.047620569822874485,1248.980225998733,18464.01427696648
2.7713856928464233,901.6684818224701,901.8969462950813,0.08812605533039666,0.0,0.1881521862618157,0.20958526352936632,0.047619871347495464,1248.8823990857243,18477.256543168114
2.7813906953476737,901.7243808377021,901.9539670652398,0.08857743951050488,0.0,0.188291640211831,0.2094453669564797,0.04761917147265219,1248.7844076156564,18490.48413336925
2.7913956978489245,901.7803159462691,902.0109619081709,0.08902958157578149,0.0,0.1884313283223009,0.2093052353371535,0.04761847019696993,1248.6862514921147,18503.697083366806
2.801400700350175,901.8362914423707,902.0679320922845,0.0894824819692109,0.0,0.18857125073062309,0.2091648685331104,0.04761776751905794,1248.5879306185477,18516.89542891464
2.8114057028514257,901.8923118388317,902.1248787309,0.0899361411341539,0.0,0.18871140757430305,0.209024266405956,0.04761706343751114,1248.4894448983152,18530.079205728685
2.8214107053526765,901.9483818934092,902.1818027769667,0.09039055951412346,0.0,0.18885179899088608,0.20888342881724833,0.04761635795091185,1248.3907942347375,18543.24844949257
2.831415707853927,902.0045066372049,902.2387050175388,0.0908457375525512,0.0,0.18899242511788647,0.20874235562856952,0.04761565105783151,1248.291978531146,18556.40319586388
2.8414207103551776,902.0606914056226,902.2955860678859,0.09130167569254367,0.0,0.18913328609271324,0.20860104670160123,0.047614942756832715,1248.1929976909375,18569.543480481072
2.851425712856428,902.1169418717701,902.352446365509,0.09175837437662862,0.0,0.1892743820525932,0.20845950189820295,0.047614233046471006,1248.0938516176302,18582.669338971074
2.861430715357679,902.1732640828162,902.4092861639947,0.09221583404649004,0.0,0.1894157131344907,0.20831772108049362,0.047613521925297046,1247.9945402149224,18595.780806957646
2.8714357178589296,902.2296644991544,902.4661055270456,0.09267405514269275,0.0,0.1895572794750238,0.20817570411093664,0.04761280939185874,1247.8950633867523,18608.877920070587
2.88144072036018,902.2861500369502,902.522904322691,0.09313303810439612,0.0,0.1896990812103773,0.20803345085242825,0.04761209544470339,1247.7954210373623,18621.960713955803
2.8914457228614308,902.3427281138646,902.5796822181132,0.09359278336905785,0.0,0.18984111847621307,0.20789096116838895,0.04761138008238009,1247.6956130713634,18635.029224286365
2.901450725362681,902.3994066985897,902.6364386752041,0.0940532913721278,0.0,0.1899833914075767,0.20774823492285785,0.04761066330344206,1247.5956393938034,18648.08348677457
2.911455727863932,902.4561943639058,902.6931729474203,0.09451456254673453,0.0,0.19012590013880268,0.20760527198058945,0.04760994510644907,1247.4954999102347,18661.123537185107
2.9214607303651827,902.5131003439424,902.7498840782058,0.09497659732336472,0.0,0.19026864480341685,0.20746207220715274,0.04760922548996998,1247.3951945267877,18674.149411349466
2.931465732866433,902.5701345952443,902.8065709017291,0.0954393961295401,0.0,0.19041162553403831,0.2073186354690306,0.0476085044525852,1247.294723150239,18687.161145181533
2.941470735367684,902.6273078623375,902.8632320464197,0.09590295938949346,0.0,0.1905548424622811,0.20717496163371996,0.04760778199288925,1247.1940856880838,18700.158774694635
2.9514757378689342,902.6846317472538,902.9198659422783,0.09636728752385035,0.0,0.19069829571865737,0.2070310505698301,0.04760705810949318,1247.0932820486082,18713.14233601997
2.961480740370185,902.7421187836865,902.9764708327305,0.09683238094932005,0.0,0.1908419854324838,0.20688690214717775,0.047606332801026933,1246.9923121409536,18726.1118654266
2.971485742871436,902.799782515032,903.0330447922784,0.09729824007840603,0.0,0.19098591173179313,0.2067425162368768,0.047605606066141615,1246.8911758751838,18739.06739934304
2.981490745372686,902.8576375769177,903.0895857510752,0.09776486531914202,0.0,0.19113007474325455,0.20659789271141962,0.047604877903511436,1246.7898731623409,18752.008974380602
2.991495747873937,902.9156997832005,903.1460915279994,0.09823225707486777,0.0,0.191274474592105,0.20645303144474625,0.04760414831183533,1246.688403914496,18764.936627358467
3.0015007503751874,902.9739862158889,903.2025598737695,0.09870041574405505,0.0,0.1914191114020965,0.20630793231229808,0.04760341728983825,1246.5867680447875,18777.850395330657
3.011505752876438,903.0325153176238,903.2589885260016,0.09916934172020352,0.0,0.19156398529546415,0.2061625951910503,0.04760268483627179,1246.4849654674438,18790.750315614874
3.0215107553776885,903.0913069869293,903.3153752781958,0.09963903539182116,0.0,0.19170909639292022,0.2060170199595178,0.047601950949914006,1246.3829960977855,18803.636425823373
3.0315157578789393,903.1503826744336,903.3717180648105,0.10010949714251621,0.0,0.19185444481368155,0.2058712064977269,0.04760121562956859,1246.2808598522092,18816.508763895756
3.04152076038019,903.2097654799259,903.4280150648038,0.1005807273512219,0.0,0.19200003067553767,0.20572515468714633,0.04760047887406253,1246.1785566481335,18829.36736813383
3.0515257628814405,903.2694802479275,903.4842648258813,0.10105272639258657,0.0,0.19214585409496865,0.20557886441056644,0.0475997406822428,1246.0760864039157,18842.21227723835
3.0615307653826913,903.3295536611967,903.5404664120261,0.10152549463755997,0.0,0.1922919151873227,0.20543233555191903,0.04759900105297105,1245.9734490387193,18855.04353034783
3.0715357678839417,903.3900143292598,903.5966195762813,0.10199903245421355,0.0,0.19243821406706474,0.20528556799602404,0.04759825998511656,1245.8706444723366,18867.86116707898
3.0815407703851925,903.4508928708664,903.6527249611743,0.10247334020883411,0.0,0.19258475084810753,0.20513856162825225,0.04759751747754681,1245.767672624943,18880.66522756908
3.0915457728864433,903.5122219868733,903.7087843278977,0.10294841826733409,0.0,0.19273152564423923,0.2049913163340904,0.04759677352911543,1245.6645334167886,18893.455752519607
3.1015507753876936,903.5740365219125,903.7648008158261,0.1034242669970238,0.0,0.19287853856966047,0.20484383199859452,0.04759602813864714,1245.5612267678043,18906.23278324132
3.1115557778889444,903.6363735108575,903.8207792318118,0.10390088676879158,0.0,0.193025789739645,0.20469610850571737,0.047595281304919176,1245.4577525971217,18918.99636170014
3.121560780390195,903.699272207992,903.8767263691593,0.10437827795973918,0.0,0.19317327927133857,0.20454814573749555,0.04759453302663904,1245.3541108224904,18931.746530563738
3.1315657828914456,903.7627740946377,903.9326513530677,0.10485644095631486,0.0,0.19332100728470888,0.20439994357308308,0.047593783302417945,1245.250301359587,18944.483333248132
3.1415707853926964,903.8269228629431,903.988566009786,0.1053353761579873,0.0,0.19346897390365903,0.20425150188761773,0.04759303213073984,1245.1463241212007,18957.206813964003
3.1515757878939468,903.8917643717411,904.0444852526588,0.10581508398148959,0.0,0.19361717925731425,0.20410282055091225,0.0475922795099255,1245.0421790162998,18969.917017761985
3.1615807903951976,903.9573465723913,904.1004274788244,0.10629556486566336,0.0,0.19376562348149032,0.20395389942595946,0.047591525438091725,1244.937865948959,18982.613990576403
3.171585792896448,904.0237194012549,904.1564149655895,0.1067768192769063,0.0,0.19391430672034526,0.20380473836725213,0.04759076991310526,1244.833384817157,18995.297779266646
3.1815907953976987,904.0909346374984,904.212474256486,0.10725884771522949,0.0,0.1940632291282156,0.20365533721891388,0.04759001293253175,1244.7287355114395,19007.96843165555
3.1915957978989495,904.1590457243119,904.2686365221973,0.10774165072088936,0.0,0.19421239087162695,0.2035056958126533,0.04758925449357963,1244.6239179134523,19020.625996563907
3.2016008004002,904.2281075536455,904.3249378833592,0.1082252288815646,0.0,0.19436179213146992,0.2033558139655496,0.04758849459303945,1244.5189318943576,19033.270523840387
3.2116058029014507,904.2981762146466,904.3814196781701,0.10870958283999636,0.0,0.19451143310531624,0.20320569147769565,0.047587733227219126,1244.4137773131465,19045.902064385977
3.221610805402701,904.3693087078542,904.4381286608558,0.10919471330201651,0.0,0.19466131400985262,0.20305532812972102,0.047586970391875844,1244.3084540148645,19058.52067017242
3.231615807903952,904.4415626278502,904.495117114598,0.10968062104483342,0.0,0.1948114350833927,0.20290472368023543,0.04758620608214552,1244.2029618287818,19071.126394253643
3.2416208104052027,904.5149958186144,904.5524428671889,0.11016730692545533,0.0,0.19496179658842985,0.20275387786322993,0.04758544029247089,1244.097300566532,19083.719290769845
3.251625812906453,904.589666006804,904.6101691974509,0.11065477188907719,0.0,0.19511239881418016,0.2026027903854895,0.047584673016529605,1243.9914700202598,19096.299414943558
3.261630815407704,904.6656304191738,904.6683646264526,0.11114301697727781,0.0,0.1952632420790662,0.20245146092406363,0.04758390424716358,1243.8854699608082,19108.86682306749
3.271635817908954,904.7429453913311,904.7271025895162,0.11163204333582764,0.0,0.19541432673308334,0.20229988912385757,0.04758313397631109,1243.7793001359948,19121.421572483694
3.281640820410205,904.8216659752851,904.7864609915342,0.11212185222194113,0.0,0.19556565315999688,0.2021480745953946,0.04758236219494313,1243.6729602690066,19133.963721554348
3.291645822911456,904.9018455539167,904.8465216515169,0.11261244501077577,0.0,0.19571722177931095,0.201996016912811,0.047581588893005525,1243.5664500569642,19146.493329623892
3.301650825412706,904.983535469971,904.9073696481101,0.11310382320102506,0.0,0.19586903304796138,0.20184371561213016,0.047580814059367954,1243.4597691696845,19159.01045697314
3.311655827913957,905.0667846773139,904.9690925814099,0.11359598841944003,0.0,0.19602108746168415,0.20169117018986804,0.04758003768178128,1243.3529172486792,19171.51516476568
3.3216608304152073,905.1516394210004,905.0317797702601,0.11408894242416451,0.0,0.19617338555602265,0.20153838010200406,0.0475792597468441,1243.2458939064136,19184.00751498714
3.331665832916458,905.2381429522554,905.095521406717,0.114582687106777,0.0,0.19632592790694292,0.20138534476335138,0.04757848023997924,1243.1386987258559,19196.48757037826
3.341670835417709,905.3263352828949,905.1604076905098,0.11507722449298052,0.0,0.19647871513103748,0.2012320635473446,0.04757769914542066,1243.0313312603166,19208.95539436241
3.3516758379189593,905.4162529827738,905.2265279669105,0.11557255674190375,0.0,0.19663174788530774,0.20107853578625573,0.047576916446211044,1242.9237910336021,19221.41105096866
3.36168084042021,905.5079290222769,905.293969889929,0.11606868614401704,0.0,0.19678502686652558,0.20092476077183816,0.04757613212420993,1242.8160775404667,19233.854604751406
3.3716858429214605,905.6013926606174,905.3628186312905,0.11656561511769602,0.0,0.19693855281018338,0.20077073775638768,0.04757534616011192,1242.708190247368,19246.28612070742
3.3816908454227113,905.6966693795043,905.4331561523456,0.11706334620449059,0.0,0.19709232648905092,0.20061646595420354,0.04757455853347469,1242.6001285935035,19258.70566419154
3.391695847923962,905.7937808603756,905.5050605530364,0.11756188206318803,0.0,0.19724634871136526,0.20046194454342162,0.04757376922275557,1242.491891992116,19271.113300831894
3.4017008504252124,905.8927450028076,905.5786055081669,0.1180612254627637,0.0,0.1974006203186824,0.2003071726681912,0.04757297820535611,1242.3834798320413,19283.509096445516
3.4117058529264632,905.9935759803808,905.6538597973805,0.11856137927434386,0.0,0.19755514218342732,0.20015214944115686,0.047572185457673416,1242.2748914794752,19295.89311695542
3.4217108554277136,906.0962843304093,905.7308869319979,0.11906234646228799,0.0,0.1977099152061763,0.19999687394621285,0.047571390955157125,1242.1661262799323,19308.265428309634
3.4317158579289644,906.2008770727139,905.8097448778911,0.1195641300745257,0.0,0.19786494031271143,0.19984134524148695,0.047570594672370826,1242.0571835603698,19320.62609640312
3.441720860430215,906.3073578534114,905.8904858717667,0.12006673323225142,0.0,0.19802021845087825,0.1996855623625239,0.04756979658305683,1241.9480626314512,19332.975187002954
3.4517258629314655,906.4157271085793,905.9731563245431,0.12057015911910059,0.0,0.1981757505872848,0.19952952432562898,0.04756899666020329,1241.8387627899247,19345.31276567735
3.4617308654327164,906.5259822439582,906.0577968054668,0.12107441096989072,0.0,0.19833153770386627,0.19937323013134628,0.04756819487611236,1241.7292833210931,19357.63889772885
3.4717358679339667,906.6381178258341,906.144442097372,0.12157949205902388,0.0,0.1984875807943451,0.1992166787680421,0.047567391202468674,1241.6196235013617,19369.9536481319
3.4817408704352175,906.7521257798682,906.2331213150853,0.12208540568860575,0.0,0.19864388086060186,0.1990598692155768,0.047566585610407386,1241.5097826008428,19382.25708147513
3.4917458729364683,906.8679955936742,906.323858076148,0.12259215517634037,0.0,0.19880043890897622,0.1989028004490463,0.047565778070580676,1241.3997598860115,19394.54926190821
3.5017508754377187,906.9857145207136,906.416670715881,0.12309974384322288,0.0,0.19895725594650301,0.19874547144258659,0.047564968553222495,1241.2895546224006,19406.830253093533
3.5117558779389695,907.1052677821419,906.5115725362782,0.12360817500104795,0.0,0.199114332977089,0.19858788117323667,0.04756415702821081,1241.1791660773376,19419.100118162503
3.52176088044022,907.2266387649976,906.6085720818493,0.12411745193972352,0.0,0.19927167099762697,0.19843002862486186,0.04756334346512715,1241.068593522721,19431.35891967648
3.5317658829414706,907.3498092142232,906.7076734331634,0.1246275779143629,0.0,0.19942927099403832,0.19827191279214684,0.04756252783331278,1240.9578362378406,19443.60671959207
3.5417708854427215,907.4747594176363,906.8088765128231,0.12513855613211602,0.0,0.19958713393723154,0.19811353268467077,0.047561710101921784,1240.8468935122548,19455.843579230786
3.551775887943972,907.6014683821173,906.9121773963174,0.12565038973866657,0.0,0.19974526077895446,0.19795488733108632,0.04756089023997049,1240.7357646487392,19468.06955925269
3.5617808904452226,907.7299140007113,907.0175686241861,0.12616308180433033,0.0,0.19990365244751937,0.19779597578342348,0.04756006821638345,1240.6244489663152,19480.28471963399
3.571785892946473,907.860073209563,907.1250395097062,0.12667663530963333,0.0,0.20006230984336384,0.19763679712155593,0.04755924400003586,1240.5129458033944,19492.489119648086
3.5817908954477238,907.9919221347945,907.2345764400535,0.12719105313028284,0.0,0.20022123383441998,0.19747735045785572,0.047558417559792336,1240.4012545210485,19504.682817850175
3.5917958979489746,908.1254362287636,907.3461631667643,0.1277063380213589,0.0,0.20038042525123909,0.19731763494209176,0.04755758886454247,1240.2893745064464,19516.865872064816
3.601800900450225,908.2605903960689,907.4597810846656,0.12822249260061766,0.0,0.20053988488183772,0.19715764976660358,0.04755675788323284,1240.177305176485,19529.03833937651
3.6118059029514757,908.39735910913,907.5754094964536,0.12873951933067862,0.0,0.20069961346619467,0.19699739417182285,0.04755592458489605,1240.0650459816545,19541.200276122774
3.621810905452726,908.5357165138424,907.6930258629723,0.12925742049996505,0.0,0.20085961169035854,0.19683686745218204,0.047555088938676514,1239.9525964101742,19553.351737889785
3.631815907953977,908.6756365254118,907.8126060374397,0.12977619820210443,0.0,0.2010198801800752,0.19667606896250167,0.04755425091385359,1239.8399559924608,19565.49277951
3.6418209104552277,908.8170929149069,907.9341244842523,0.13029585431363658,0.0,0.20118041949388732,0.19651499812490367,0.04755341047986188,1239.727124305959,19577.62345506196
3.651825912956478,908.9600593868194,908.0575544814263,0.13081639046965604,0.0,0.20134123011559132,0.19635365443636565,0.04755256760630904,1239.6141009804194,19589.74381787158
3.661830915457729,909.1045096481447,908.1828683076193,0.13133780803721218,0.0,0.20150231244599606,0.19619203747697198,0.047551722262991356,1239.5008857036576,19601.85392051527
3.6718359179589792,909.250417469389,908.310037413382,0.1318601080859968,0.0,0.20166366679383846,0.1960301469190066,0.04755087441990703,1239.387478227901,19613.95381482412
3.68184092046023,909.3977567379384,908.4390325777146,0.13238329135611265,0.0,0.20182529336579108,0.19586798253695278,0.047550024047267624,1239.2738783767645,19626.04355188956
3.691845922961481,909.546501504265,908.5698240499792,0.13290735822233324,0.0,0.20198719225538012,0.1957055442185811,0.04754917111550758,1239.1600860529843,19638.1231820698
3.701850925462731,909.6966260213069,908.7023816782378,0.13343230865461178,0.0,0.2021493634307372,0.1955428319772026,0.047548315595292164,1239.0461012469614,19650.19275499732
3.711855927963982,909.8481047775198,908.8366750243375,0.13395814217409932,0.0,0.20231180672095717,0.19537984596531505,0.04754745745752397,1238.9319240462771,19662.252319586893
3.7218609304652324,910.0009125238248,908.9726734667141,0.13448485780438896,0.0,0.20247452180097314,0.1952165864897315,0.04754659667334795,1238.817554646236,19674.301924044434
3.731865932966483,910.1550242949522,909.1103462914083,0.13501245401705714,0.0,0.20263750817466036,0.19505305402847836,0.047545733214155395,1238.702993361648,19686.34161587602
3.741870935467734,910.3104154252825,909.2496627721074,0.13554092867117165,0.0,0.20280076515606782,0.194889249249566,0.047544867051586795,1238.5882406399073,19698.371441897525
3.7518759379689843,910.4670615596619,909.3905922398095,0.1360702789455998,0.0,0.20296429184841436,0.19472517303199371,0.04754399815753377,1238.4732970756338,19710.391448244238
3.761880940470235,910.6249386591854,909.5331041427412,0.13660050126373505,0.0,0.2031280871207315,0.1945608264891075,0.04754312650414015,1238.3581634269487,19722.4016803808
3.7718859429714855,910.7840230023668,909.6771680971639,0.13713159120917623,0.0,0.20329214958169858,0.19439621099476553,0.04754225206380256,1238.2428406337094,19734.40218311095
3.7818909454727363,910.9442911815945,909.822753929517,0.13766354343192488,0.0,0.2034564775505345,0.19423132821244596,0.0475413748091701,1238.1273298377932,19746.39300058741
3.791895947973987,911.1057200952222,909.9698317105309,0.1381963515432632,0.0,0.20362106902437707,0.19406618012786733,0.04754049471314388,1238.011632405828,19758.374176321355
3.8019009504752375,911.2682869350975,910.1183717815759,0.13873000799882465,0.0,0.2037859216419977,0.19390076908527343,0.04753961174887589,1237.8957499544786,19770.345753191854
3.8119059529764883,911.4319691697956,910.2683447738463,0.1392645039675637,0.0,0.2039510326431404,0.19373509782809303,0.0475387258897678,1237.779684378776,19782.30777345469
3.8219109554777386,911.5967445232756,910.4197216204783,0.13979982918609285,0.0,0.20411639882331986,0.19356916954414133,0.04753783710946943,1237.6634378836186,19794.260278750982
3.8319159579789894,911.7625909491264,910.5724735621376,0.14033597179553395,0.0,0.20428201648319344,0.19340298791624674,0.047536945381877194,1237.5470130190495,19806.20331011503
3.8419209604802402,911.9294866000469,910.7265721460291,0.14087291816033612,0.0,0.20444788137233708,0.19323655717847404,0.04753605068113246,1237.4304127194328,19818.136907981738
3.8519259629814906,912.0974097925997,910.8819892187737,0.14141065266553,0.0,0.20461398862632965,0.19306988217903873,0.04753515298162004,1237.3136403472959,19830.061112193067
3.8619309654827414,912.2663389668421,911.0386969129826,0.14194915749190698,0.0,0.2047803326969877,0.19290296845007193,0.04753425225796676,1237.1966997419452,19841.975962003948
3.8719359679839918,912.4362526407107,911.1966676278599,0.14248841236478932,0.0,0.20494690727440484,0.19273582228558,0.04753334848504036,1237.0795952737892,19853.881496086928
3.8819409704852426,912.6071293587424,911.3558740035677,0.14302839427600905,0.0,0.20511370520067776,0.19256845082771784,0.04753244163794864,1236.9623319044574,19865.77775253612
3.891945972986493,912.7789476348377,911.5162888895492,0.1435690771738306,0.0,0.20528071837368528,0.1924008621630099,0.04753153169203903,1236.8449152538533,19877.664768869665
3.9019509754877437,912.9516858886425,911.6778853064769,0.1441104316207221,0.0,0.20544793764089042,0.19223306542854793,0.047530618622898674,1236.727351674156,19889.542582031234
3.9119559779889945,913.1253223750675,911.8406364018706,0.14465242441266932,0.0,0.2056153526812093,0.19206507093012265,0.04752970240635517,1236.6096483321403,19901.411228389825
3.921960980490245,913.2998351065681,912.0045153990192,0.14519501816048055,0.0,0.20578295187508547,0.1918968902721501,0.0475287830184779,1236.4918132997173,19913.27074373831
3.9319659829914957,913.4752017674865,912.1694955390863,0.14573817082567364,0.0,0.20595072216047133,0.19172853650169192,0.04752786043558024,1236.3738556542949,19925.12116328999
3.941970985492746,913.6513996202038,912.3355500160568,0.14628183521234175,0.0,0.20611864887514922,0.19156002426613586,0.047526934634222626,1236.255785588657,19936.96252167361
3.951975987993997,913.8284054021814,912.5026519042218,0.14682595840651896,0.0,0.20628671558276185,0.19139136998716824,0.04752600559121676,1236.1376145322006,19948.794852926076
3.9619809904952477,914.0061952138618,912.6707740779658,0.14737048116601345,0.0,0.20645490388347248,0.19122259205011702,0.047525073283630766,1236.0193552828769,19960.618190483237
3.971985992996498,914.1847443963051,912.8398891233683,0.14791533725135472,0.0,0.20662319320635286,0.19105371101156796,0.04752413768879588,1235.9010221518743,19972.43256716802
3.981990995497749,914.3640273989053,913.0099692415954,0.14846045270332636,0.0,0.20679156058519615,0.19088474982355666,0.047523198784314276,1235.7826311198476,19984.23801517632
3.991995997998999,914.5440176359141,913.1809861434406,0.1490057450573079,0.0,0.20695998041472186,0.19071573407737002,0.04752225654806872,1235.6642000068148,19996.03456605975
4.00200100050025,914.7246873327024,913.3529109353395,0.14955112250374347,0.0,0.2071284241900632,0.19054669226406543,0.04752131095823367,1235.5457486537016,20007.82225070579
4.012006003001501,914.9060073604529,913.5257139961326,0.15009648298536793,0.0,0.20729686022663044,0.19037765605461612,0.04752036199328849,1235.4272991175671,20019.601099314354
4.022011005502751,915.0879470610934,913.6993648454502,0.15064171324620412,0.0,0.20746525336500835,0.19020866059502303,0.04751940963203242,1235.3088758772549,20031.37114137143
4.0320160080040015,915.2704740613187,913.8738320030177,0.15118668782469194,0.0,0.20763356465851765,0.1900397448187646,0.04751845385360193,1235.190506051129,20043.132405618646
4.042021010505253,915.4535540787766,914.0490828405677,0.15173126801406692,0.0,0.20780175105061338,0.1898709517694103,0.04751749463749022,1235.072219621893,20054.884920019595
4.052026013006503,915.6371507197002,914.2250834258548,0.15227530078595952,0.0,0.2079697650408707,0.18970232893464906,0.04751653196356936,1234.9540496693614,20066.628711721754
4.0620310155077535,915.8212252727936,914.4017983615994,0.15281861771132085,0.0,0.20813755435014095,0.18953392858114895,0.047515565812114774,1234.8360326038135,20078.363807014965
4.072036018009005,916.0057364994556,914.5791906192818,0.15336103388060543,0.0,0.2083050615854767,0.18936580808964903,0.04751459616383276,1234.7182083995076,20090.090231285263
4.082041020510255,916.1906404273846,914.7572213721189,0.15390234687129853,0.0,0.2084722239197485,0.18919803027536192,0.04751362299989044,1234.60062081796,20101.808008965316
4.092046023011505,916.375890148842,914.9358498278373,0.15444233577311417,0.0,0.20863897278915677,0.18903066369048277,0.0475126463019489,1234.4833176187528,20113.51716348029
4.102051025512757,916.5614356332909,915.115033067418,0.1549807603352018,0.0,0.20880523362860362,0.18886378288883987,0.047511666052198843,1234.366350743964,20125.217717190688
4.112056028014007,916.7472235571755,915.2947258913482,0.15551736025572982,0.0,0.20897092565124548,0.18869746864636686,0.047510682233399326,1234.2497764718062,20136.90969133112
4.122061030515257,916.9331971633757,915.4748806815829,0.15605185469449884,0.0,0.20913596169725296,0.1885318081123684,0.047509694828918834,1234.133655522045,20148.593105946966
4.132066033016508,917.1192961545859,915.6554472817364,0.15658394203838197,0.0,0.2093002481610253,0.18836689488233369,0.04750870382277911,1234.0180531067401,20160.267979828026
4.142071035517759,917.3054566355057,915.8363729055734,0.15711330001229742,0.0,0.20946368502562618,0.18820282896352972,0.04750770919970075,1233.903038906278,20171.934330441716
4.152076038019009,917.491611108976,916.0176020770152,0.157639586170145,0.0,0.20962616601512576,0.18803971662268895,0.047506710945150916,1233.7886869632355,20183.592173865
4.16208104052026,917.6776885418639,916.1990766128512,0.1581624388595872,0.0,0.20978757889398122,0.1878776700866597,0.0475057090453917,1233.6750754737823,20195.241524718345
4.172086043021511,917.8636145052684,916.3807356512553,0.15868147868912447,0.0,0.20994780592228432,0.18771680708718974,0.04750470348752956,1233.5622864704674,20206.882396101
4.182091045522761,918.0493114031169,916.5625157368922,0.1591963105737743,0.0,0.21010672449055617,0.1875572502261622,0.04750369425956388,1233.4504053798905,20218.514799531455
4.192096048024012,918.2346987908145,916.7443509642096,0.15970652636549762,0.0,0.2102642079359959,0.18739912615937757,0.047502681350435075,1233.339520453921,20230.138744892636
4.202101050525263,918.4196937926109,916.926173187037,0.1602117081022008,0.0,0.21042012655068118,0.18724256458838137,0.0475016647500698,1233.2297220671628,20241.75424038598
4.212106053026513,918.6042116136517,917.1079122928288,0.16071143184077905,0.0,0.21057434877100525,0.1870876970710547,0.047500644449423764,1233.1211018881172,20253.36129249395
4.222111055527764,918.7881661461092,917.2894965444751,0.16120527204086674,0.0,0.21072674253800647,0.1869346556613082,0.04749962044051961,1233.0137519312634,20264.959905955347
4.232116058029014,918.9714706575535,917.4708529832593,0.16169280641166944,0.0,0.21087717680140047,0.18678357140507124,0.047498592716480235,1232.907763508997,20276.550083752456
4.242121060530265,919.1540385491516,917.6519078887445,0.16217362110764938,0.0,0.21102552313186954,0.18663457272801912,0.04749756127155497,1232.80322610813,20288.131827114354
4.252126063031516,919.335784164102,917.8325872840702,0.16264731613607175,0.0,0.21117165739909832,0.18648778375754976,0.04749652610113947,1232.7002262205733,20299.705135534503
4.262131065532766,919.5166236225076,918.0128174749742,0.16311351078937103,0.0,0.21131546145751676,0.1863433226370481,0.04749548720178685,1232.598846168648,20311.270006806346
4.272136068034017,919.6964756586178,918.1925256074745,0.16357184894230328,0.0,0.2114568247900883,0.18620129988209969,0.04749444457121114,1232.4991629596313,20322.82643707412
4.282141070535268,919.8752624293797,918.3716402269326,0.16402200398767175,0.0,0.21159564603994832,0.18606181684884884,0.04749339820828114,1232.4012472184518,20334.374420901404
4.292146073036518,920.052910271916,918.5500918232942,0.16446368327250763,0.0,0.21173183438703183,0.1859249643573619,0.04749234811300651,1232.3051622284024,20345.913951353716
4.302151075537768,920.229350378394,918.7278133433203,0.16489663181958122,0.0,0.21186531070293282,0.1857908215367526,0.04749129428651408,1232.2109631263868,20357.445020096395
4.31215607803902,920.4045193745493,918.904740658664,0.1653206352655878,0.0,0.2119960084626926,0.18565945491337532,0.04749023673101736,1232.1186962675506,20368.96761750331
4.32216108054027,920.5783597767206,919.0808129727942,0.16573552185936719,0.0,0.21212387436490426,0.18553091779069486,0.04748917544977739,1232.0283987931634,20380.48173277659
4.33216608304152,920.7508203271195,919.2559731630046,0.16614116355028755,0.0,0.21224886866948542,0.18540524991148624,0.04748811044705821,1231.9400983952444,20391.987354072542
4.3421710855427715,920.9218561927494,919.4301680455787,0.16653747609374012,0.0,0.21237096523044555,0.1852824774250348,0.047487041728075906,1231.8538132937203,20403.4844686333
4.352176088044022,921.0914290417878,919.6033485688414,0.16692441830060006,0.0,0.21249015126301382,0.185162613119974,0.047485969298944046,1231.7695523986924,20414.973062919602
4.362181090545272,921.2595069935309,919.7754699279614,0.16730199043627608,0.0,0.21260642684686873,0.18504565692101868,0.04748489316661516,1231.6873156565944,20426.453122743893
4.3721860930465235,921.4260644663023,919.9464916134042,0.16767023196195,0.0,0.21271980422523712,0.18493159658982822,0.047483813338820756,1231.6070945385936,20437.9246334001
4.382191095547774,921.5910819269519,920.1163773914669,0.1680292186747856,0.0,0.21283030691747934,0.18482040861238233,0.04748272982400957,1231.5288726589588,20449.387579789138
4.392196098049024,921.7545455711745,920.2850952330725,0.1683790594608009,0.0,0.21293796871147358,0.18471205920655767,0.04748164263128636,1231.4526264771844,20460.84194653775
4.402201100550275,921.9164469413947,920.4526171916467,0.16871989273406568,0.0,0.21304283255865658,0.18460650542704904,0.04748055177035073,1231.3783260679454,20472.28771810994
4.412206103051526,922.0767825106652,920.6189192473856,0.16905188275648697,0.0,0.2131449494320032,0.18450369630735175,0.04747945725143787,1231.3059359168751,20483.72487890976
4.422211105552776,922.2355532387263,920.7839811190706,0.16937521590174937,0.0,0.21324437716667044,0.18440357401908158,0.047478359085260886,1231.2354157284183,20495.153413375006
4.4322161080540265,922.3927641240624,920.9477860594453,0.16969009701300578,0.0,0.21334117932972857,0.18430607500220836,0.04747725728295577,1231.1667212134132,20506.573306061684
4.442221110555278,922.5484237554596,921.1103206343578,0.1699967458943125,0.0,0.21343542413138966,0.1842111310537948,0.0474761518560289,1231.099804847757,20517.98454171893
4.452226113056528,922.702543880656,921.2715744990563,0.17029539403271562,0.0,0.2135271834078063,0.1841186703451659,0.047475042816307565,1231.034616581192,20529.387105355094
4.4622311155577785,922.8551389925268,921.4315401704379,0.1705862815661679,0.0,0.21361653168015127,0.18402861836280035,0.0474739301758934,1230.9711044929404,20540.78098229481
4.47223611805903,923.0062259442765,921.5902128056631,0.17086965454615538,0.0,0.21370354530514674,0.18394089875777342,0.04747281394711902,1230.9092153836082,20552.166158228236
4.48224112056028,923.1558235916131,921.7475899846648,0.17114576249141777,0.0,0.21378830171592153,0.18385543410487454,0.047471694142507494,1230.8488953041463,20563.542619252283
4.4922461230615305,923.3039524683708,921.903671504263,0.17141485624467365,0.0,0.21387087875689348,0.18377214656770083,0.047470570774734995,1230.790090019294,20574.910351905386
4.502251125562781,923.4506344920748,922.0584591805679,0.17167718611822302,0.0,0.21395135410829333,0.18369095847411163,0.04746944385659608,1230.7327454085525,20586.269343195472
4.512256128064032,923.595892702293,922.2119566651975,0.17193300031554623,0.0,0.2140298047963335,0.1836117928060394,0.047468313400971844,1230.6768078074813,20597.619580622857
4.5222611305652824,923.7397510277398,922.3641692716238,0.17218254361162358,0.0,0.21410630678366116,0.183534573609018,0.04746717942080059,1230.6222242930507,20608.961052197625
4.532266133066533,923.882234082619,922.5151038155448,0.17242605626475177,0.0,0.21418093463164897,0.1834592263298752,0.047466041929050816,1230.5689429189358,20620.293746453168
4.542271135567784,924.0233669883283,922.6647684656036,0.17266377314444462,0.0,0.21425376122973938,0.18338567808737233,0.04746490093869663,1230.516912904084,20631.61765245538
4.552276138069034,924.1631752196377,922.8131726071989,0.17289592304152904,0.0,0.21432485758132827,0.18331385788630694,0.047463756462695114,1230.4660847818898,20642.932759809046
4.562281140570285,924.3016844720142,922.9603267159675,0.17312272814954002,0.0,0.21439429264280546,0.1832436967784585,0.04746260851396565,1230.4164105123243,20654.23905866092
4.572286143071536,924.4389205485114,923.1062422428846,0.17334440368186974,0.0,0.2144621332047233,0.18317512798140853,0.047461457105371134,1230.3678435647153,20665.536539700894
4.582291145572786,924.5749092636067,923.2509315079562,0.173561157619114,0.0,0.2145284438133683,0.18310808695695777,0.047460302249700693,1230.3203389723685,20676.82519416054
4.592296148074037,924.7096763621272,923.3944076039046,0.1737731905523357,0.0,0.21459328672209843,0.18304251145977887,0.047459143959654095,1230.2738533664542,20688.10501381055
4.602301150575287,924.843247451385,923.5366843072587,0.1739806956217629,0.0,0.21465672187229665,0.18297834155645426,0.04745798224782743,1230.2283449892534,20699.37599095609
4.612306153076538,924.9756479446045,923.6777759978713,0.17418385851929472,0.0,0.2147188068941261,0.18291551962471223,0.04745681712670016,1230.1837736936109,20710.63811843164
4.622311155577789,925.1069030144441,923.8176975847158,0.17438285755865277,0.0,0.21477959712827818,0.18285399033167174,0.04745564860862334,1230.1401009277567,20721.891389594162
4.632316158079039,925.2370375547443,923.9564644386968,0.17457786378463738,0.0,0.21483914565985662,0.18279370059995137,0.04745447670580893,1230.0972897116785,20733.13579831617
4.64232116058029,925.3660761498832,924.0940923307484,0.17476904112869673,0.0,0.2148975033666346,0.18273459955940646,0.04745330143032015,1230.0553046034706,20744.37133897748
4.652326163081541,925.4940430499785,924.2305973757294,0.17495654658540777,0.0,0.214954718973802,0.18267663849237584,0.04745212279406268,1230.014111661172,20755.598006457163
4.662331165582791,925.620962151764,924.3659959807601,0.17514053041933192,0.0,0.21501083911814003,0.18261977076950253,0.04745094080877691,1229.9736783980284,20766.815796124414
4.672336168084042,925.7468569835129,924.5003047983371,0.17532113637990146,0.0,0.21506590841468862,0.18256395178306178,0.04744975548603068,1229.9339737360235,20778.024703829793
4.682341170585293,925.8717506941716,924.6335406831853,0.17549850193513472,0.0,0.2151199695292582,0.18250913887444528,0.047448566837213116,1229.8949679553346,20789.22472589565
4.692346173086543,925.9956660452056,924.765720653043,0.17567275850453606,0.0,0.2151730632506893,0.18245529126189802,0.047447374873528785,1229.8566326439695,20800.415859106986
4.702351175587793,926.1186254055664,924.8968618526094,0.17584403170272092,0.0,0.21522522856644105,0.18240236996492637,0.0474461796059928,1229.8189406450806,20811.598100701696
4.712356178089045,926.240650748395,925.0269815207287,0.17601244157642895,0.0,0.2152765027361296,0.18235033773075718,0.04744498104542619,1229.7818660057112,20822.771448361305
4.722361180590295,926.36176365005,925.1560969602681,0.1761781028466916,0.0,0.21532692136666623,0.18229915895919693,0.04744377920245209,1229.7453839244276,20833.935900201148
4.732366183091545,926.4819852901659,925.2842255106589,0.17634112514081332,0.0,0.21537651848423525,0.1822487996306516,0.04744257408749222,1229.7094707011527,20845.0914547612
4.742371185592797,926.6013364534598,925.4113845227548,0.17650161322581365,0.0,0.2154253266067268,0.18219922723369228,0.04744136571076399,1229.6741036866852,20856.238110996375
4.752376188094047,926.7198375320677,925.5375913358772,0.17665966722969906,0.0,0.21547337681239284,0.18215041069639717,0.04744015408227778,1229.639261234851,20867.375868267423
4.762381190595297,926.8375085292118,925.6628632568709,0.17681538286180784,0.0,0.21552069880821673,0.182102320317981,0.04743893921183497,1229.604922654853,20878.5047263315
4.7723861930965485,926.9543690630471,925.7872175409553,0.17696885162010428,0.0,0.2155673209942336,0.18205492770447326,0.04743772110902595,1229.5710681664473,20889.624685333274
4.782391195597799,927.070438371538,925.9106713743325,0.17712016099609776,0.0,0.215613270527114,0.1820082057051337,0.04743649978322885,1229.537678855628,20900.73574579572
4.792396198099049,927.1857353172753,926.033241858268,0.17726939466657393,0.0,0.2156585733796558,0.18196212835295966,0.047435275243608174,1229.5047366331685,20911.83790861149
4.8024012006003,927.3002783931083,926.1549459947177,0.17741663268214328,0.0,0.21570325439928936,0.18191667080618057,0.04743404749911414,1229.4722241938487,20922.931175034028
4.812406203101551,927.4140857275511,926.2758006731583,0.17756195164291924,0.0,0.21574733736258864,0.18187180929374613,0.04743281655848196,1229.4401249784657,20934.015546669212
4.822411205602801,927.5271750908511,926.3958226587886,0.17770542487065,0.0,0.21579084502868284,0.1818275210619147,0.04743158243023154,1229.408423136612,20945.091025466743
4.832416208104052,927.6395639007285,926.5150285817075,0.1778471225686183,0.0,0.21583379918887238,0.18178378432463713,0.04743034512266737,1229.3771034920996,20956.157613712145
4.842421210605303,927.7512692286622,926.6334349273194,0.17798711197789133,0.0,0.2158762207151128,0.18174057821507297,0.047429104643878624,1229.3461515091715,20967.215314018445
4.852426213106553,927.8623085908392,926.7510579598159,0.17812546322924966,0.0,0.21591812959882897,0.1816978827467917,0.04742786277900318,1229.3155520270939,20978.264129321924
4.862431215607804,927.9727007419949,926.8679138111771,0.17826225435597057,0.0,0.21595954493939212,0.18165567882543893,0.047426624657797185,1229.2852881763167,20989.304062907246
4.872436218109055,928.0824620545154,926.9840187853113,0.17839754507018896,0.0,0.2160004850158048,0.18161394817698365,0.047425390544725284,1229.255347049015,21000.335118387047
4.882441220610305,928.1916084387336,927.0993890152884,0.17853139169529203,0.0,0.2160409673639031,0.181572673270424,0.047424160395469594,1229.2257164700266,21011.357299673866
4.8924462231115555,928.3001554831958,927.2140404419669,0.17866384828178367,0.0,0.2160810088127184,0.1815318372814254,0.04742293416685082,1229.196384755559,21022.370610972703
4.902451225612806,928.4081184611205,927.3279888098072,0.1787949667202413,0.0,0.2161206255195454,0.18149142405725333,0.047421711816813074,1229.1673406887637,21033.375056773526
4.912456228114057,928.5155123363575,927.4412496630107,0.17892479684548485,0.0,0.21615983300228114,0.18145141808443496,0.04742049330441027,1229.138573497211,21044.370641844354
4.9224612306153075,928.6223517697006,927.5538383424883,0.1790533865380817,0.0,0.21619864617094037,0.18141180445724486,0.047419278589790864,1229.110072830941,21055.357371224098
4.932466233116558,928.728651124696,927.665769983056,0.1791807818178591,0.0,0.2162370793566886,0.18137256884867306,0.047418067634184054,1229.0818287422462,21066.335250215907
4.942471235617809,928.8344244737863,927.777059511394,0.179307026935071,0.0,0.21627514634014983,0.18133369748211825,0.047416860399884464,1229.0538316659545,21077.30428438034
4.9524762381190595,928.9396856039521,927.8877216441493,0.17943216445429774,0.0,0.21631286037745703,0.18129517710533846,0.04741565685023834,1229.02607240129,21088.26447952898
4.96248124062031,929.0444480226691,927.9977708867403,0.1795562353362726,0.0,0.21635023422566196,0.1812569949650424,0.04741445694962818,1228.9985420941805,21099.2158417179
4.972486243121561,929.1487249633728,928.107221532235,0.17967927901315225,0.0,0.21638728016610853,0.18121913878351728,0.047413260663459016,1228.9712322209791,21110.158377241587
4.982491245622811,929.2525293912227,928.2160876608796,0.17980133346196983,0.0,0.216424010027244,0.18118159673581882,0.04741206795814312,1228.9441345725852,21121.09209262662
4.992496248124062,929.3558740083863,928.3243831396389,0.1799224352721672,0.0,0.21646043520559172,0.18114435742879978,0.04741087880108631,1228.917241239841,21132.016994625916
5.002501250625312,929.4587712596067,928.4321216223399,0.18004261971153038,0.0,0.2164965666862297,0.1811074098806328,0.04740969316067282,1228.8905445992732,21142.933090212697
5.012506253126563,929.5612333373051,928.5393165497766,0.1801619207868195,0.0,0.21653241506162124,0.18107074350198096,0.047408511006251736,1228.864037299986,21153.840386574906
5.022511255627814,929.6632721869546,928.6459811503756,0.1802803713029911,0.0,0.21656799055001064,0.18103434807760327,0.047407332308122045,1228.8377122508552,21164.738891109537
5.032516258129064,929.7648995120018,928.7521284407796,0.18039800291763952,0.0,0.21660330301233346,0.18099821374944605,0.04740615703751926,1228.811562608756,21175.628611417247
5.042521260630315,929.8661267790487,928.8577712269515,0.18051484619422847,0.0,0.21663836196875338,0.18096233100010747,0.047404985166600674,1228.7855817670543,21186.50955529691
5.052526263131566,929.9669652225967,928.9629221051631,0.18063093065101793,0.0,0.2166731766138608,0.1809266906376399,0.047403816668432124,1228.759763345029,21197.381730740526
5.062531265632816,930.0674258500453,929.067593463471,0.18074628480896437,0.0,0.21670775583155535,0.18089128378066927,0.047402651516973635,1228.734101177512,21208.24514592798
5.072536268134067,930.1675194462563,929.1717974830391,0.18086093623568925,0.0,0.21674210820870604,0.18085610184473605,0.04740148968706633,1228.7085893053854,21219.0998092222
5.082541270635318,930.267256578375,929.2755461399244,0.18097491158864054,0.0,0.2167762420485627,0.18082113652888543,0.047400331154418336,1228.683221966247,21229.945729164116
5.092546273136568,930.3666476002268,929.3788512066828,0.18108823665466653,0.0,0.21681016538305237,0.18078637980337203,0.04739917589559207,1228.6579935858556,21240.782914468058
5.102551275637818,930.4657026569571,929.4817242544066,0.18120093638890505,0.0,0.21684388598486481,0.18075182389757596,0.0473980238879903,1228.6328987697211,21251.61137401695
5.11255627813907,930.564431689268,929.5841766545636,0.18131303495046003,0.0,0.21687741137853941,0.1807174612889176,0.047396875109843806,1228.6079322953929,21262.431116857897
5.12256128064032,930.6628444378842,929.68621958124,0.18142455573747113,0.0,0.21691074885136494,0.1806832846919589,0.047395729540197815,1228.5830891048763,21273.24215219759
5.13256628314157,930.7609504476324,929.78786401317,0.18153552141930718,0.0,0.21694390546338538,0.18064928704839892,0.04739458715889984,1228.5583642976735,21284.0444893981
5.142571285642822,930.8587590717399,929.8891207361435,0.18164595396824185,0.0,0.2169768880572462,0.18061546151722924,0.04739344794658652,1228.5337531239336,21294.83813797253
5.152576288144072,930.9562794757607,929.9900003451872,0.18175587468851623,0.0,0.21700970326722838,0.18058180146570127,0.047392311884671794,1228.509250978171,21305.62310758092
5.162581290645322,931.0535206417144,930.0905132471041,0.1818653042450015,0.0,0.21704235752815945,0.18054830046041642,0.047391178955334026,1228.4848533930672,21316.39940802614
5.172586293146573,931.1504913718614,930.1906696627714,0.18197426268945874,0.0,0.21707485708357724,0.1805149522591639,0.04739004914150456,1228.4605560337943,21327.16704925003
5.182591295647824,931.2472002926853,930.2904796297786,0.18208276948647956,0.0,0.217107207993796,0.18048175080285606,0.04738892242685522,1228.4363546924071,21337.926041329378
5.192596298149074,931.3436558585264,930.389953004818,0.18219084353727227,0.0,0.21713941614330204,0.18044869020813367,0.047387798795787146,1228.4122452827005,21348.676394472302
5.202601300650325,931.439866355412,930.4890994663944,0.1822985032031712,0.0,0.21717148724806523,0.18041576476005644,0.04738667823341866,1228.3882238351257,21359.418119014426
5.212606303151576,931.5358399045482,930.5879285172795,0.18240576632717367,0.0,0.2172034268622362,0.1803829689054066,0.04738556072557451,1228.3642864921371,21370.15122541537
5.222611305652826,931.6315844660064,930.6864494872715,0.18251265025528357,0.0,0.21723524038478526,0.18035029724605167,0.04738444625877404,1228.3404295035757,21380.875724255147
5.232616308154077,931.7271078420811,930.7846715356956,0.18261917185606605,0.0,0.21726693306558426,0.18031774453286364,0.047383334820220765,1228.3166492224411,21391.591626230824
5.242621310655328,931.8224176808314,930.8826036541906,0.18272534754001615,0.0,0.21729851001143216,0.18028530565969506,0.047382226397790966,1228.2929421007084,21402.298942153036
5.252626313156578,931.9175214793094,930.9802546692353,0.1828311932773214,0.0,0.2173299761915803,0.18025297565785456,0.04738112098002364,1228.2693046854836,21412.997682942827
5.262631315657829,932.012426586965,931.0776332449466,0.18293672461548882,0.0,0.21736133644321723,0.18022074969062385,0.04738001855610933,1228.2457336151951,21423.68785962836
5.272636318159079,932.1071402087479,931.1747478856176,0.18304195669549841,0.0,0.21739259547649412,0.18018862304823305,0.04737891911588053,1228.2222256161037,21434.36948334186
5.28264132066033,932.2016694083807,931.2716069385111,0.18314690426785257,0.0,0.2174237578795197,0.18015659114286756,0.047377822649800894,1228.1987774988293,21445.042565316486
5.292646323161581,932.2960211113354,931.3682185963936,0.1832515817072771,0.0,0.21745482812293457,0.18012464950409438,0.047376729148955896,1228.1753861551754,21455.70711688342
5.302651325662831,932.3902021079796,931.464590900314,0.18335600302735336,0.0,0.2174858105644657,0.18009279377430934,0.047375638605042486,1228.152048554966,21466.363149468907
5.312656328164082,932.4842190564356,931.5607317421216,0.1834601818939213,0.0,0.2175167094530977,0.1800610197045666,0.04737455101036002,1228.1287617431483,21477.01067459146
5.3226613306653325,932.5780784856006,931.656648867219,0.18356413163844165,0.0,0.2175475289332329,0.18002932315042008,0.04737346635780039,1228.105522836903,21487.64970385903
5.332666333166583,932.671786797893,931.7523498770547,0.18366786527021448,0.0,0.2175782730484944,0.17999770006812152,0.04737238464083917,1228.082329023005,21498.280248966374
5.342671335667834,932.7653502721511,931.84784223184,0.18377139548859833,0.0,0.21760894574553105,0.17996614651081644,0.047371305853526134,1228.0591775551807,21508.902321692323
5.3526763381690845,932.8587750662673,931.9431332530073,0.18387473469415844,0.0,0.21763955087748807,0.17993465862507477,0.04737022999047678,1228.0360657516997,21519.515933897295
5.362681340670335,932.9520672199741,932.0382301258858,0.18397789499986195,0.0,0.21767009220749384,0.17990323264740532,0.04736915704686318,1228.0129909929535,21530.121097520703
5.372686343171585,933.0452326573687,932.1331399021187,0.18408088824126795,0.0,0.21770057341183283,0.17987186490108378,0.047368087018405794,1227.9899507192536,21540.717824578576
5.3826913456728365,933.1382771895866,932.2278695022874,0.18418372598676994,0.0,0.21773099808313592,0.1798405517929634,0.04736701990136468,1227.9669424286178,21551.306127161075
5.392696348174087,933.2312065172245,932.3224257182857,0.1842864195469439,0.0,0.21776136973329208,0.17980928981056457,0.04736595569253168,1227.943963674749,21561.886017430235
5.402701350675337,933.324026232902,932.4168152158865,0.18438897998391696,0.0,0.21779169179636695,0.17977807551915728,0.047364894389221875,1227.9210120650116,21572.457507617637
5.412706353176588,933.4167418235878,932.5110445370656,0.18449141811994635,0.0,0.2178219676312756,0.1797469055590892,0.04736383598926618,1227.8980852585757,21583.02061002221
5.422711355677839,933.5093586730552,932.6051201025108,0.1845937445460211,0.0,0.2178522005244623,0.17971577664310698,0.04736278049100306,1227.875180964558,21593.575337008017
5.432716358179089,933.6018820641119,932.6990482138907,0.18469596962972928,0.0,0.21788239369235232,0.17968468555390557,0.04736172789327143,1227.852296940324,21604.121701002205
5.44272136068034,933.694317180954,932.7928350562993,0.18479810352315537,0.0,0.21791255028381293,0.1796536291416681,0.04736067819540273,1227.8294309897772,21614.65971449287
5.452726363181591,933.7866691113032,932.8864867004701,0.1849001561701127,0.0,0.21794267338240728,0.17962260432181304,0.04735963139721413,1227.8065809617985,21625.189390027106
5.462731365682841,933.8789428486623,932.9800091051538,0.18500213731340404,0.0,0.21797276600865773,0.17959160807273142,0.04735858749900087,1227.7837447486772,21635.710740208957
5.4727363681840915,933.9711432943626,933.0734081192725,0.185104056501465,0.0,0.21800283112211663,0.17956063743371767,0.04735754650152978,1227.760920284674,21646.2237776976
5.482741370685343,934.0632752597269,933.1666894842324,0.18520592309506104,0.0,0.21803287162345433,0.1795296895028819,0.04735650840603195,1227.738105544573,21656.728515205385
5.492746373186593,934.155343468028,933.2598588360144,0.18530774627338759,0.0,0.21806289035636067,0.1794987614352496,0.047355473214196475,1227.715298542367,21667.224965496072
5.5027513756878434,934.2473525565624,933.3529217074197,0.1854095350402551,0.0,0.21809289010947414,0.17946785044083324,0.047354440928163447,1227.692497329916,21677.713141383014
5.512756378189095,934.3393070785238,933.4458835300969,0.18551129822968823,0.0,0.2181228736181275,0.17943695378288763,0.047353411550517976,1227.6696999957408,21688.193055727457
5.522761380690345,934.4312115049898,933.5387496367186,0.18561304451164276,0.0,0.21815284356613093,0.17940606877612725,0.04735238508428354,1227.6469046637856,21698.664721436802
5.532766383191595,934.5230702267172,933.6315252629466,0.1857147823971781,0.0,0.21818280258738534,0.17937519278511446,0.047351361532916136,1227.6241094923,21709.12815146302
5.542771385692847,934.6148875560413,933.7242155495372,0.18581652024371928,0.0,0.218212753267524,0.17934432322261792,0.04735034090029795,1227.6013126727048,21719.58335880098
5.552776388194097,934.7066677285947,933.8168255442434,0.1859182662598357,0.0,0.21824269814540287,0.17931345754812356,0.047349323190731867,1227.5785124285549,21730.030356486914
5.562781390695347,934.7984149051263,933.9093602038514,0.186020028510105,0.0,0.21827263971461847,0.17928259326631707,0.04734830840893529,1227.5557070144916,21740.46915759689
5.572786393196598,934.8901331731446,934.0018243960179,0.18612181491952232,0.0,0.21830258042488365,0.17925172792570934,0.0473472965600349,1227.5328947152886,21750.899775245318
5.582791395697849,934.9818265486585,934.0942229012378,0.18622363327800642,0.0,0.21833252268343367,0.1792208591172308,0.04734628764956082,1227.5100738448782,21761.32222258349
5.592796398199099,935.0734989777513,934.18656041462,0.1863254912444784,0.0,0.21836246885629915,0.17918998447295936,0.04734528168344159,1227.4872427454698,21771.73651279817
5.60280140070035,935.165154338243,934.2788415477838,0.18642739635102076,0.0,0.21839242126960415,0.17915910166482285,0.04734427866799854,1227.4643997866517,21782.142659110206
5.612806403201601,935.2567964411962,934.3710708305732,0.1865293560066566,0.0,0.21842238221074586,0.17912820840342034,0.04734327860994098,1227.4415433645743,21792.540674773212
5.622811405702851,935.3484290325081,934.4632527128864,0.18663137750121048,0.0,0.2184523539295999,0.17909730243681707,0.047342281516360885,1227.418671901115,21802.930573072208
5.632816408204102,935.4400557943486,934.5553915663269,0.18673346800880175,0.0,0.21848233863961092,0.1790663815494551,0.047341287394728294,1227.3957838431254,21813.3123673224
5.642821410705353,935.5316803466832,934.6474916859671,0.1868356345914285,0.0,0.2185123385189116,0.17903544356103437,0.047340296252886195,1227.372877661654,21823.686070867883
5.652826413206603,935.6233062486484,934.7395572919379,0.18693788420220633,0.0,0.218542355711334,0.17900448632550242,0.047339308099046136,1227.3499518512497,21834.051697080467
5.662831415707854,935.7149370000056,934.8315925311274,0.18704022368868342,0.0,0.21857239232744496,0.17897350773001944,0.04733832294178337,1227.3270049292423,21844.409259358457
5.672836418209104,935.8065760424568,934.9236014787099,0.18714265979585495,0.0,0.21860245044548737,0.1789425056940177,0.04733734079003267,1227.3040354350933,21854.758771125544
5.682841420710355,935.898226761037,935.0155881397811,0.18724519916925753,0.0,0.21863253211234676,0.17891147816823522,0.047336361653083664,1227.2810419297266,21865.100245829646
5.692846423211606,935.9898924853677,935.1075564508292,0.1873478483577418,0.0,0.2186626393444175,0.1788804231338507,0.047335385540576855,1227.2580229949297,21875.433696941822
5.702851425712856,936.0815764909892,935.1995102813056,0.1874506138163613,0.0,0.21869277412850524,0.17884933860158125,0.04733441246249919,1227.2349772327293,21885.759137955225
5.712856428214107,936.1732820005566,935.2914534350394,0.1875535019089412,0.0,0.2187229384226293,0.17881822261088068,0.04733344242918026,1227.2119032648354,21896.076582384037
5.722861430715358,936.2650121851154,935.3833896517477,0.18765651891078008,0.0,0.21875313415686715,0.17878707322909557,0.04733247545128802,1227.18879973206,21906.38604376247
5.732866433216608,936.3567701652449,935.475322608394,0.1877596710110397,0.0,0.21878336323410097,0.1787558885507194,0.04733151153982526,1227.165665293798,21916.687535643796
5.742871435717859,936.4485590122717,935.5672559206383,0.187862964315238,0.0,0.2188136275307968,0.17872466669661344,0.04733055070612549,1227.1424986274908,21926.98107159935
5.7528764382191095,936.5403817493675,935.6591931441426,0.18796640484750518,0.0,0.21884392889770957,0.1786934058133028,0.04732959296184953,1227.1192984281374,21937.266665217638
5.76288144072036,936.6322413527053,935.7511377759615,0.18806999855288548,0.0,0.21887426916060274,0.17866210407225697,0.047328638318981604,1227.0960634077974,21947.544330103385
5.77288644322161,936.7241407525066,935.8430932557948,0.18817375129943636,0.0,0.2189046501209042,0.17863075966923436,0.047327686789826164,1227.072792295138,21957.814079876684
5.7828914457228615,936.8160828341497,935.9350629673232,0.18827766888039216,0.0,0.218935073556383,0.17859937082360638,0.04732673838700414,1227.0494838349666,21968.0759281721
5.792896448224112,936.9080704391669,936.0270502394103,0.1883817570161133,0.0,0.21896554122175832,0.17856793577774846,0.047325793123449825,1227.0261367878093,21978.329888637858
5.802901450725362,937.0001063663027,936.1190583473812,0.1884860213561043,0.0,0.2189960548493308,0.17853645279640945,0.0473248510124074,1227.0027499294736,21988.575974935004
5.8129064532266135,937.0921933724669,936.2110905141764,0.18859046748083366,0.0,0.21902661614955138,0.17850492016614336,0.04732391206742801,1226.979322050659,21998.814200736622
5.822911455727864,937.1843341737447,936.303149911578,0.18869510090361566,0.0,0.21905722681160975,0.17847333619472092,0.04732297630236629,1226.955851956546,22009.044579727033
5.832916458229114,937.2765314463074,936.3952396613155,0.18879992707232307,0.0,0.21908788850397012,0.1784416992105947,0.04732204373137773,1226.9323384664294,22019.267125601076
5.8429214607303654,937.3687878273772,936.4873628362412,0.18890495137114427,0.0,0.2191186028749205,0.1784100075623498,0.04732111436891535,1226.908780413337,22029.481852063334
5.852926463231616,937.4611059160924,936.579522461387,0.18901017912215737,0.0,0.2191493715530652,0.178378259618212,0.04732018822972712,1226.8851766436903,22039.688772827445
5.862931465732866,937.5534882744332,936.6717215150944,0.1891156155870057,0.0,0.219180196147849,0.178346453765524,0.04731926532885289,1226.8615260169418,22049.88790161538
5.8729364682341165,937.6459374280472,936.7639629300248,0.18922126596836303,0.0,0.21921107825001518,0.1783145884102877,0.04731834568162186,1226.8378274052593,22060.0792521568
5.882941470735368,937.7384558671316,936.8562495942413,0.1893271354115036,0.0,0.21924201943209698,0.17828266197667295,0.04731742930364969,1226.8140796931866,22070.262838188344
5.892946473236618,937.8310460472203,936.9485843521767,0.18943322900566012,0.0,0.21927302124884235,0.17825067290659352,0.04731651621083613,1226.7902817773493,22080.438673453038
5.9029514757378685,937.9237103900277,937.0409700056688,0.18953955178550863,0.0,0.2193040852376782,0.17821861965924274,0.0473156064193622,1226.766432566135,22090.606771699633
5.91295647823912,938.0164512842013,937.1334093148885,0.18964610873244836,0.0,0.21933521291911148,0.17818650071069322,0.04731469994568801,1226.7425309794169,22100.767146682007
5.92296148074037,938.109271086122,937.2259049993277,0.18975290477596377,0.0,0.21936640579715472,0.1781543145534714,0.04731379680655002,1226.7185759482586,22110.919812158576
5.9329664832416205,938.202172120629,937.3184597386911,0.1898599447948685,0.0,0.21939766535971567,0.17812205969616807,0.047312897018959015,1226.6945664146458,22121.06478189172
5.942971485742872,938.2951566817801,937.4110761738398,0.1899672336185568,0.0,0.21942899307898878,0.1780897346630476,0.047312000600197496,1226.6705013312164,22131.202069647192
5.952976488244122,938.3882270335419,937.503756907643,0.19007477602816636,0.0,0.21946039041181903,0.17805733799368412,0.047311107567817735,1226.6463796610092,22141.331689193623
5.962981490745372,938.4813854105197,937.5965045058844,0.1901825767577805,0.0,0.21949185880007832,0.17802486824258554,0.04731021793963929,1226.6222003772034,22151.453654301946
5.972986493246623,938.5746340186128,937.6893214980737,0.19029064049549566,0.0,0.21952339967099938,0.17799232397885983,0.04730933173374719,1226.5979624628894,22161.5679787449
5.982991495747874,938.6679750357121,937.7822103783145,0.19039897188455623,0.0,0.21955501443753112,0.17795970378586007,0.04730844896848955,1226.5736649108221,22171.67467629653
5.992996498249124,938.7614106123268,937.8751736060818,0.19050757552437567,0.0,0.219586704498658,0.17792700626086533,0.04730756966247588,1226.5493067232019,22181.773760731663
6.003001500750375,938.8549428722511,937.968213607052,0.19061645597160465,0.0,0.21961847123973469,0.17789423001474616,0.047306693834574795,1226.524886911442,22191.865245825506
6.013006503251626,938.9485739131587,938.0613327738439,0.19072561774106836,0.0,0.219650316032779,0.177861373671672,0.04730582150391239,1226.5004044959685,22201.9491453531
6.023011505752876,939.0423058072405,938.1545334668133,0.1908350653067832,0.0,0.21968224023679075,0.17782843586879274,0.04730495268987013,1226.475858505998,22212.025473088914
6.033016508254127,939.1361406017752,938.2478180147648,0.1909448031028619,0.0,0.21971424519803423,0.177795415255956,0.047304087412083265,1226.4512479793443,22222.094242806423
6.043021510755377,939.2300803197334,938.3411887157068,0.19105483552443972,0.0,0.21974633225032897,0.17776231049541724,0.04730322569043881,1226.4265719622178,22232.155468277644
6.053026513256628,939.3241269603249,938.4346478375345,0.19116516692854857,0.0,0.21977850271532287,0.17772912026156631,0.04730236754507405,1226.4018295090352,22242.209163272746
6.063031515757879,939.4182824995771,938.5281976187531,0.19127580163499944,0.0,0.21981075790276852,0.17769584324065166,0.047301512996374716,1226.3770196822306,22252.255341559645
6.073036518259129,939.5125488908535,938.6218402691264,0.19138674392718183,0.0,0.21984309911077357,0.17766247813053,0.04730066206497345,1226.3521415520827,22262.294016903605
6.08304152076038,939.6069280654089,938.7155779703731,0.19149799805292494,0.0,0.21987552762607018,0.1776290236403974,0.04729981477174806,1226.3271941965277,22272.32520306687
6.093046523261631,939.7014219328825,938.8094128767834,0.19160956822523095,0.0,0.2199080447242446,0.1775954784905593,0.04729897113782021,1226.3021767010014,22282.348913808295
6.103051525762881,939.7960323818295,938.9033471158855,0.19172145862310674,0.0,0.21994065166999757,0.1775618414121709,0.04729813118455362,1226.2770881582599,22292.365162882987
6.113056528264132,939.890761280193,938.9973827890364,0.19183367339225946,0.0,0.21997334971736202,0.17752811114701944,0.047297294933552926,1226.2519276682294,22302.373964041934
6.123061530765383,939.9856104758087,939.0915219720563,0.19194621664586564,0.0,0.22000614010994385,0.17749428644728343,0.04729646240666193,1226.226694337839,22312.375331031708
6.133066533266633,940.0805817968563,939.1857667157958,0.19205909246524597,0.0,0.2200390240811331,0.17746036607532192,0.047295633625962445,1226.2013872808766,22322.369277594113
6.143071535767883,940.1756770523451,939.2801190467419,0.19217230490060394,0.0,0.2200720028543352,0.17742634880344316,0.047294808613772776,1226.176005617827,22332.355817465854
6.153076538269135,940.2708980325422,939.3745809675593,0.19228585797164963,0.0,0.22010507764316617,0.17739223341370985,0.04729398739264659,1226.1505484757402,22342.334964378268
6.163081540770385,940.3662465094337,939.4691544576688,0.19239975566828887,0.0,0.2201382496516686,0.17735801869772316,0.04729316998537137,1226.1250149880796,22352.30673205697
6.173086543271635,940.4617242371385,939.5638414737668,0.19251400195124552,0.0,0.22017152007450586,0.17732370345642848,0.047292356414967464,1226.099404294589,22362.271134221624
6.1830915457728866,940.5573329523493,939.6586439503784,0.19262860075271493,0.0,0.22020489009716723,0.1772892864999109,0.047291546704686584,1226.0737155411518,22372.228184585587
6.193096548274137,940.653074374724,939.7535638003517,0.19274355597693596,0.0,0.22023836089614662,0.1772547666472163,0.0472907408780109,1226.0479478796667,22382.1778968557
6.203101550775387,940.7489502073103,939.8486029153884,0.19285887150082417,0.0,0.2202719336391407,0.1772201427261533,0.04728993895865159,1226.0221004679106,22392.12028473198
6.2131065532766385,940.8449621369182,939.9437631665155,0.19297455117451157,0.0,0.22030560948521782,0.1771854135731247,0.04728914097054805,1225.9961724694228,22402.055361907394
6.223111555777889,940.9411118345266,940.0390464045929,0.19309059882196017,0.0,0.22033938958501043,0.17715057803293516,0.04728834693786648,1225.9701630533727,22411.983142067565
6.233116558279139,941.0374009556411,940.1344544607658,0.19320701824147973,0.0,0.2203732750808763,0.17711563495862984,0.047287556884999096,1225.9440713944457,22421.90363889058
6.24312156078039,941.1338311406788,940.2299891469468,0.1933238132062901,0.0,0.22040726710707528,0.1770805832113181,0.047286770836562894,1225.9178966727256,22431.81686604671
6.253126563281641,941.2304040153132,940.3256522562508,0.19344098746503288,0.0,0.22044136678992876,0.17704542166001389,0.04728598881739878,1225.89163807358,22441.72283719821
6.263131565782891,941.3271211908444,940.4214455634568,0.19355854474232362,0.0,0.22047557524799294,0.1770101491814628,0.04728521085257051,1225.8652947875437,22451.62156599908
6.273136568284142,941.4239842645243,940.5173708254217,0.1936764887392093,0.0,0.22050989359220152,0.17697476465999917,0.04728443696736381,1225.8388660102182,22461.513066094867
6.283141570785393,941.5209948199122,940.6134297815227,0.19379482313370985,0.0,0.22054432292603546,0.17693926698737686,0.04728366718728536,1225.8123509421566,22471.397351122436
6.293146573286643,941.61815442719,940.7096241540539,0.19391355158127616,0.0,0.22057886434566595,0.17690365506262598,0.04728290153806205,1225.7857487887627,22481.27443470979
6.3031515757878935,941.7154646434982,940.8059556486493,0.19403267771528235,0.0,0.22061351894010856,0.17686792779189897,0.04728214004563986,1225.759058760185,22491.144330475876
6.313156578289145,941.8129270132385,940.9024259546617,0.19415220514747472,0.0,0.22064828779136356,0.1768320840883304,0.0472813827361833,1225.7322800712216,22501.007052030363
6.323161580790395,941.9105430683968,940.9990367455671,0.19427213746845087,0.0,0.2206831719745658,0.1767961228718872,0.0472806296360743,1225.705411941214,22510.8626129735
6.3331665832916455,942.0083143288313,941.0957896793278,0.1943924782480743,0.0,0.22071817255811435,0.17676004306923904,0.04727988077191166,1225.6784535939582,22520.71102689591
6.343171585792896,942.1062423025828,941.1926863987806,0.19451323103595042,0.0,0.22075329060382134,0.1767238436136094,0.04727913617051002,1225.6514042576039,22530.552307378453
6.353176588294147,942.204328486153,941.2897285319825,0.19463439936182983,0.0,0.22078852716703792,0.17668752344465,0.04727839585889937,1225.6242631645646,22540.38646799202
6.3631815907953975,942.3025743647977,941.3869176925829,0.19475598673604697,0.0,0.2208238832967916,0.17665108150830333,0.04727765986432397,1225.5970295514246,22550.2135222974
6.373186593296648,942.4009814127949,941.4842554801547,0.19487799664991856,0.0,0.22085936003591058,0.17661451675667836,0.047276928214242,1225.5697026588516,22560.033483845124
6.383191595797899,942.4995510937285,941.5817434805509,0.19500043257617458,0.0,0.22089495842115864,0.17657782814791578,0.047276200936324536,1225.542281731505,22569.846366175305
6.393196598299149,942.5982848607431,941.6793832662227,0.19512329796933361,0.0,0.2209306794833522,0.176541014646071,0.047275478058455105,1225.5147660179532,22579.652182817506
6.4032016008004,942.697184156815,941.7771763965577,0.19524659626611277,0.0,0.2209665242474888,0.17650407522098566,0.04727475960872881,1225.4871547705864,22589.450947290596
6.413206603301651,942.7962504149995,941.8751244181883,0.1953703308858071,0.0,0.22100249373286515,0.17646700884816965,0.04727404561545191,1225.4594472455344,22599.242673102606
6.423211605802901,942.8954850586892,941.9732288653142,0.19549450523067288,0.0,0.22103858895319725,0.17642981450868103,0.04727333610714094,1225.4316427025822,22609.02737375064
6.433216608304152,942.9948895018508,942.071491259997,0.19561912268629117,0.0,0.2210748109167338,0.17639249118901268,0.04727263111252234,1225.403740405093,22618.805062720676
6.443221610805402,943.0944651492763,942.1699131124718,0.1957441866219615,0.0,0.2211111606263793,0.17635503788096923,0.04727193066053165,1225.3757396199233,22628.57575348755
6.453226613306653,943.1942133968054,942.2684959214267,0.19586970039101934,0.0,0.2211476390797929,0.17631745358156808,0.047271234780313094,1225.3476396173533,22638.339459514737
6.463231615807904,943.2941356315708,942.3672411743039,0.19599566733124743,0.0,0.22118424726951716,0.17627973729291105,0.04727054350121888,1225.3194396709976,22648.096194254307
6.473236618309154,943.3942332322127,942.4661503475677,0.1961220907651845,0.0,0.2212209861830743,0.17624188802208776,0.04726985685280878,1225.2911390577406,22657.845971146788
6.483241620810405,943.4945075691104,942.5652249069911,0.19624897400049432,0.0,0.22125785680308144,0.17620390478106057,0.04726917486484942,1225.262737057654,22667.5888036211
6.493246623311656,943.5949600045902,942.6644663079146,0.1963763203302872,0.0,0.22129486010735094,0.17616578658656432,0.04726849756731397,1225.2342329539294,22677.324705094405
6.503251625812906,943.6955918931493,942.7638759955214,0.19650413303347614,0.0,0.22133199706900158,0.17612753245999507,0.04726782499038143,1225.2056260328,22687.05368897205
6.513256628314157,943.7964045816567,942.8634554050852,0.19663241537509812,0.0,0.2213692686565587,0.17608914142730997,0.0472671571644363,1225.1769155834725,22696.775768647465
6.523261630815408,943.8973994095642,942.9632059622343,0.19676117060663495,0.0,0.22140667583405463,0.17605061251892695,0.04726649412006794,1225.1481008980556,22706.49095750208
6.533266633316658,943.9985777091044,943.06312908319,0.1968904019663495,0.0,0.2214442195611333,0.17601194476962,0.04726583588807027,1225.1191812714897,22716.199268905242
6.543271635817908,944.0999408054939,943.1632261750211,0.1970201126796071,0.0,0.22148190079315053,0.17597313721841884,0.047265182499441116,1225.0901560014754,22725.90071621413
6.55327663831916,944.2014900171187,943.2634986358709,0.1971503059591594,0.0,0.22151972048126264,0.17593418890852036,0.047264533985381975,1225.061024388414,22735.595312773694
6.56328164082041,944.3032266557341,943.3639478552017,0.19728098500548852,0.0,0.22155767957253408,0.17589509888718136,0.047263890377297356,1225.0317857353305,22745.283071916565
6.57328664332166,944.4051520266444,943.4645752140161,0.1974121530070958,0.0,0.2215957790100267,0.17585586620562849,0.04726325170679457,1225.002439347815,22754.964006962993
6.583291645822912,944.5072674288936,943.5653820850895,0.1975438131408163,0.0,0.22163401973289862,0.17581648991895996,0.04726261800568309,1224.97298453395,22764.638131220803
6.593296648324162,944.6095741554385,943.6663698331829,0.19767596857209968,0.0,0.22167240267649135,0.17577696908605836,0.04726198930597436,1224.9434206042538,22774.305457985298
6.603301650825412,944.7120734933329,943.7675398152675,0.19780862245532949,0.0,0.22171092877242954,0.17573730276949068,0.047261365639881224,1224.9137468716087,22783.96600053922
6.613306653326664,944.8147667238961,943.8688933807291,0.1979417779340948,0.0,0.22174959894870536,0.17569749003542412,0.047260747039817676,1224.8839626512038,22793.619772152695
6.623311655827914,944.917655122888,943.9704318715841,0.19807543814148873,0.0,0.2217884141297719,0.1756575299535324,0.0472601335383983,1224.85406726047,22803.266786083175
6.633316658329164,945.0207399606741,944.0721566226757,0.19820960620039493,0.0,0.22182737523663212,0.17561742159690719,0.047259525168438156,1224.8240600190172,22812.907055575397
6.643321660830415,945.1240225023947,944.174068961884,0.19834428522377334,0.0,0.22186648318692806,0.17557716404196844,0.04725892196295213,1224.7939402485738,22822.54059386133
6.653326663331666,945.2275040081222,944.2761702103132,0.1984794783149274,0.0,0.2219057388950241,0.1755367563683814,0.047258323955154835,1224.7637072729283,22832.167414160125
6.663331665832916,945.3311857330267,944.3784616824934,0.19861518856779933,0.0,0.2219451432720988,0.17549619765896465,0.04725773117846004,1224.7333604178652,22841.787529678095
6.673336668334167,945.4350689275269,944.4809446865631,0.19875141906722546,0.0,0.22198469722622458,0.1754554869996104,0.04725714366648054,1224.70289901111,22851.400953608652
6.683341670835418,945.5391548374498,944.5836205244623,0.19888817288921976,0.0,0.22202440166245588,0.1754146234791962,0.04725656145302761,1224.6723223822676,22861.007699132293
6.693346673336668,945.6434447041779,944.6864904921076,0.19902545310123035,0.0,0.22206425748290912,0.17537360618950504,0.04725598457211087,1224.641629862768,22870.60777941655
6.703351675837919,945.7479397648048,944.7895558795814,0.19916326276242852,0.0,0.22210426558685273,0.1753324342251354,0.047255413057937797,1224.6108207858017,22880.20120761598
6.71335667833917,945.8526412522757,944.8928179712997,0.19930160492395374,0.0,0.22214442687078312,0.1752911066834248,0.04725484694491354,1224.5798944862681,22889.787996872117
6.72336168084042,945.9575503955369,944.9962780461918,0.1994404826291717,0.0,0.22218474222850568,0.17524962266436936,0.04725428626764052,1224.5488503007202,22899.368160313465
6.7333666833416705,946.0626684196749,945.0999373778658,0.19957989891394023,0.0,0.2222252125512166,0.17520798127054144,0.0472537310609182,1224.517687567305,22908.941711055457
6.743371685842921,946.1679965460611,945.2037972347821,0.19971985680687895,0.0,0.22226583872758776,0.175166181607005,0.047253181359742664,1224.486405625707,22918.508662200446
6.753376688344172,946.2735359924852,945.3078588804112,0.19986035932959909,0.0,0.22230662164383738,0.17512422278124468,0.04725263719930649,1224.4550038170978,22928.06902683769
6.7633816908454225,946.3792879732929,945.4121235734012,0.20000140949696055,0.0,0.22234756218381072,0.17508210390308523,0.04725209861499827,1224.4234814840804,22937.622818043343
6.773386693346673,946.4852536995206,945.516592567733,0.20014301031733153,0.0,0.22238866122906034,0.17503982408461097,0.04725156564240251,1224.3918379706329,22947.170048880413
6.783391695847924,946.5914343790275,945.6212671128804,0.2002851647928281,0.0,0.222429919658921,0.17499738244009128,0.047251038317299175,1224.360072622057,22956.71073239878
6.7933966983491745,946.6978312166239,945.7261484539605,0.20042787591956432,0.0,0.22247133835058705,0.17495477808590235,0.04725051667566355,1224.3281847849241,22966.244881635175
6.803401700850425,946.8044454142022,945.8312378318885,0.20057114668789175,0.0,0.22251291817918745,0.17491201014045313,0.04725000075366583,1224.2961738070223,22975.772509613176
6.813406703351676,946.9112781708599,945.9365364835237,0.2007149800826388,0.0,0.22255466001785962,0.17486907772411034,0.04724949058767098,1224.264039037306,22985.293629343207
6.8234117058529264,947.0183306830253,946.042045641818,0.2008593790833412,0.0,0.22259656473782166,0.1748259799591272,0.04724898621423833,1224.2317798258453,22994.808253822517
6.833416708354177,947.1256041445807,946.1477665359585,0.20100434666449665,0.0,0.2226386332084512,0.1747827159695637,0.04724848767012144,1224.1993955237704,23004.316396035207
6.843421710855427,947.2330997469837,946.2537003915119,0.20114988579578869,0.0,0.22268086629735506,0.17473928488121726,0.0472479949922677,1224.166885483224,23013.81806895222
