z,T,t,fs,fl,x,y,w,rhob,p
0.0,634.416793847296,505.0,0.0,0.0,0.16090768180048376,0.23690030041155163,0.04773139920550464,1268.0,14330.0
0.010005002501250625,642.8903977049315,518.016793182035,2.677892884193982e-05,0.0,0.1609159895012691,0.23689199271058214,0.047731399205213396,1267.994209324267,14341.232464022092
0.02001000500250125,651.047422142841,530.5281453208918,5.7610395188305195e-05,0.0,0.1609255544316289,0.23688242777980403,0.047731399204551904,1267.9875423276214,14352.690324788338
0.030015007503751877,658.9025157628402,542.5589216111827,9.267724767507391e-05,0.0,0.16093643331687255,0.23687154889367262,0.04773139920314808,1267.979959470669,14364.365529794411
0.0400200100050025,666.4694373456725,554.1323461398708,0.00013213559646391363,0.0,0.16094867458690548,0.2368593076218654,0.04773139920034238,1267.9714269957865,14376.250272356578
0.05002501250625312,673.7611264362664,565.2701453157439,0.00017611618429963011,0.0,0.1609623188014336,0.23684566340397536,0.04773139919502602,1267.9619166305547,14388.336986432236
0.060030015007503754,680.7897670025691,575.9926755793322,0.0002247260091717762,0.0,0.1609773991531719,0.2368305830461628,0.04773139918542059,1267.9514052367513,14400.618341134441
0.07003501750875438,687.5668449695538,586.3190374616499,0.0002780500881082107,0.0,0.16099394201477796,0.23681404017404045,0.04773139916879078,1267.9398744287926,14413.08723502916
0.080040020010005,694.1032002899171,596.2671776820806,0.00033615327783151355,0.0,0.16101196750336197,0.23679601466793543,0.04773139914108418,1267.9273101798367,14425.736790300241
0.09004502251125562,700.4090741706101,605.8539808007633,0.0003990820918443047,0.0,0.16103149004382275,0.23677649209927795,0.0477313990964957,1267.9137024286167,14438.560346839286
0.10005002501250625,706.4941520207481,615.0953517631702,0.0004668664718465663,0.0,0.16105251891795058,0.2367554631811763,0.04773139902695821,1267.8990446961109,14451.551456294603
0.11005502751375687,712.3676025522451,624.0062903729391,0.0005395214830168579,0.0,0.16107505878985046,0.2367329232426279,0.04773139892156447,1267.8833337186375,14464.70387612893
0.12006003001500751,718.0381134357291,632.6009586286488,0.0006170489142143894,0.0,0.16109911020181603,0.23670887173224275,0.047731398765929876,1267.8665691014762,14478.011563719709
0.13006503251625812,723.5139238866901,640.8927417695879,0.0006994387726811499,0.0,0.16112467003743364,0.23668331175470658,0.047731398541508825,1267.8487529952804,14491.468670520037
0.14007003501750875,728.802854507091,648.8943037539898,0.000786670668327678,0.0,0.1611517319504052,0.23665624964150705,0.04773139822488083,1267.8298897963462,14505.069536294313
0.15007503751875936,733.9123346344622,656.6176377392339,0.0008787150860491656,0.0,0.1611802867586234,0.2366276945563987,0.04773139778702422,1267.8099858710866,14518.808683455241
0.16008004002001,738.8494274492895,664.074112109194,0.0009755345484063956,0.0,0.16121032280424094,0.23659765813487926,0.04773139719259658,1267.7890493042225,14532.680811512982
0.17008504252126064,743.6208530797061,671.2745125537598,0.0010770846732516442,0.0,0.16124182628117223,0.23656615415624951,0.04773139639924219,1267.7670896696966,14546.680791634952
0.18009004502251125,748.2330098824685,678.2290805871462,0.0011833151313701716,0.0,0.16127478153161762,0.23653319824668065,0.04773139535694582,1267.7441178232414,14560.803661329403
0.19009504752376188,752.6919940648668,684.9475488547346,0.001294170510274266,0.0,0.1613091713135301,0.2364988076113795,0.047731394007450634,1267.720145715272,14575.044619261793
0.2001000500250125,757.0036178090011,691.4391735615881,0.0014095910909568525,0.0,0.16134497704115042,0.2364630007937363,0.04773139228375708,1267.695186222646,14589.399020203442
0.21010505252626313,761.1734260470699,697.7127643243535,0.0015295135444440297,0.0,0.16138217900074603,0.23642579745932957,0.04773139010971728,1267.6692529978172,14603.862370107368
0.22011005502751374,765.2067119918688,703.776711665987,0.0016538715544856535,0.0,0.16142075654352928,0.2363872182028184,0.047731387399735925,1267.6423603340218,14618.430321322054
0.23011505752876438,769.1085315338042,709.6390123783274,0.0017825963728768663,0.0,0.16146068825777737,0.23634728437570654,0.04773138405858622,1267.6145230450952,14633.098667942972
0.24012006003001501,772.8837166151957,715.3072929705579,0.0019156173136218508,0.0,0.16150195212208587,0.23630601793304865,0.04773137998134707,1267.5857563585782,14647.863341293722
0.25012506253126565,776.5368876656053,720.7888313717064,0.002052862191562757,0.0,0.16154452564150282,0.23626344129735513,0.04773137505346386,1267.5560758209022,14662.72040553793
0.26013006503251623,780.0724651699579,726.0905770316283,0.0021942577107591523,0.0,0.1615883859681819,0.23621957723805484,0.047731369150932366,1267.5254972135062,14677.666053425264
0.27013506753376687,783.4946804451034,731.2191695677924,0.0023397298076073244,0.0,0.16163351000810064,0.23617444876496935,0.047731362140602654,1267.494036478809,14692.696602167482
0.2801400700350175,786.80758569998,736.1809561009815,0.0024892039532383313,0.0,0.1616798745152465,0.23612807903439165,0.04773135388059814,1267.4617096550458,14707.808489435123
0.29014507253626814,790.0150634260655,740.9820073737369,0.002642605419270569,0.0,0.161727456174529,0.23608049126650685,0.04773134422084158,1267.4285328190942,14722.998269479984
0.3001500750375187,793.1208351710683,745.6281327535198,0.00279985951072646,0.0,0.1617762316745899,0.2360317086729759,0.04773133300367836,1267.3945220364478,14738.262609381178
0.31015507753876936,796.1284697510979,750.1248942241236,0.002960891769543284,0.0,0.1618261777715677,0.23598175439362026,0.04773132006458641,1267.3596933176004,14753.59828540709
0.32016008004002,799.041390945352,754.4776194487893,0.0031256281517479463,0.0,0.1618772713447566,0.23593065144125877,0.04773130523296074,1267.3240625801627,14769.002179489737
0.33016508254127064,801.862884705843,758.69141396842,0.003293995181118175,0.0,0.16192948944502486,0.23587842265382428,0.047731288332958935,1267.2876456161,14784.471275813896
0.3401700850425213,804.5961059202974,762.7711726060946,0.0034659200818786266,0.0,0.16198280933677076,0.23582509065297252,0.047731269184394874,1267.2504580635293,14800.002657516876
0.35017508754377186,807.2440847691568,766.7215901522469,0.0036413308926540404,0.0,0.16203720853409426,0.23577067780849764,0.047731247603667,1267.2125153825855,14815.593503489881
0.3601800900450225,809.809732699749,770.5471713751222,0.0038201565637513263,0.0,0.16209266483181503,0.23571520620791453,0.04773122340470762,1267.1738328349074,14831.241085283167
0.37018509254627313,812.2958480438928,774.2522404054705,0.0040023270396368936,0.0,0.16214915633190424,0.23565869763063244,0.047731196399940536,1267.1344254663302,14846.942764113264
0.38019009504752377,814.7051213081197,777.8409495482608,0.004187773328233188,0.0,0.1622066614658234,0.23560117352621904,0.04773116640123457,1267.09430809242,14862.695987966295
0.39019509754877435,817.0401401622117,781.3172875678466,0.004376427558471952,0.0,0.1622651590132063,0.23554265499631213,0.04773113322084185,1267.053495286549,14878.498288792267
0.400200100050025,819.3033941410753,784.6850874754105,0.004568223027491688,0.0,0.16232462811730483,0.23548316277975034,0.04773109667231003,1267.0120013701849,14894.347279792488
0.4102051025512756,821.4972790803455,787.9480338555985,0.004763094238672181,0.0,0.16238504829756126,0.23542271724055602,0.04773105657135969,1266.9698404051524,14910.240652796754
0.42021010505252626,823.6241013091783,791.109669773516,0.004960976931492739,0.0,0.16244639945960512,0.23536133835846537,0.04773101273671842,1266.9270261876318,14926.176175722934
0.4302151075537769,825.6860816130798,794.1734032860186,0.0051618081042010214,0.0,0.16250866190297547,0.23529904572170227,0.04773096499090471,1266.8835722436888,14942.151690119206
0.4402201100550275,827.6853589799741,797.1425135814561,0.005365526030177606,0.0,0.16257181632683806,0.23523585852172157,0.04773091316095643,1266.8394918261347,14958.165108788144
0.4502251125562781,829.6239941456384,800.0201567762975,0.0055720702687296194,0.0,0.16263584383392107,0.2351717955496959,0.047730857079099076,1266.7947979125606,14974.214413488391
0.46023011505752875,831.5039729547593,802.8093713968993,0.005781381670928334,0.0,0.16270072593285703,0.23510687519455659,0.04773079658335079,1266.749503204405,14990.29765270845
0.4702351175587794,833.3272095446213,805.5130835598775,0.005993402381175497,0.0,0.16276644453914202,0.23504111544237538,0.04773073151806194,1266.7036201269143,15006.412939514508
0.48024012006003003,835.0955493627974,808.1341118711953,0.006208075835042402,0.0,0.16283298197487986,0.2349745338769197,0.047730661734388516,1266.6571608298677,15022.558449469845
0.4902451225612806,836.8107720327353,810.6751720677615,0.006425346753794412,0.0,0.16290032096743948,0.2349071476812526,0.04773058709069906,1266.6101371889847,15038.73241862019
0.5002501250625313,838.4745940753845,813.1388814161231,0.0066451611360489665,0.0,0.1629684446471646,0.23483897364023892,0.04773050745291556,1266.5625608079176,15054.933141544067
0.5102551275637819,840.088671493368,815.5277628801191,0.006867466246998428,0.0,0.1630373365442716,0.23477002814382228,0.047730422694790726,1266.514443020733,15071.158969468053
0.5202601300650325,841.6546022269539,817.8442490735072,0.007092210605521864,0.0,0.16310698058503786,0.23470032719097314,0.04773033269812318,1266.465794894817,15087.40830844402
0.5302651325662832,843.1739284926239,820.0906860157896,0.007319343969416333,0.0,0.16317736108735448,0.23462988639423468,0.04773023735291323,1266.4166272341542,15103.679617583277
0.5402701350675337,844.6481390076531,822.2693366978435,0.007548817319094564,0.0,0.16324846275575328,0.23455872098475844,0.04773013655746272,1266.3669505829089,15119.971407349065
0.5502751375687843,846.0786711071436,824.3823844685868,0.007780582839997486,0.0,0.1633202706759898,0.23448684581775212,0.04773003021842249,1266.3167752292522,15136.282237905754
0.560280140070035,847.4669127619087,826.4319362568008,0.008014593903882603,0.0,0.16339277030923385,0.23441427537828755,0.04772991825079104,1266.2661112094102,15152.61071752073
0.5702851425712856,848.8142045029876,828.4200256380733,0.008250805049171644,0.0,0.1634659474859288,0.23434102378741223,0.047729800577868034,1266.2149683118848,15168.955501017073
0.5802901450725363,850.1218412557831,830.3486157524172,0.008489171960582893,0.0,0.16353978839939312,0.23426710480849286,0.04772967713116725,1266.1633560818136,15185.315288277616
0.5902951475737869,851.3910740893299,832.2196020819583,0.00872965144818741,0.0,0.1636142795992112,0.23419253185374617,0.0477295478502929,1266.111283825428,15201.68882279828
0.6003001500750375,852.6231118879969,834.0348151007399,0.008972201425951341,0.0,0.16368940798443546,0.23411731799093774,0.047729412682782815,1266.0587606146096,15218.074890286387
0.6103051525762881,853.8191229475531,835.7960228003507,0.009216780889940534,0.0,0.16376516079665812,0.23404147595019273,0.04772927158392273,1266.0057952914995,15234.472317304799
0.6203101550775387,854.9802364991791,837.5049330975664,0.009463349896305843,0.0,0.16384152561299398,0.23396501813088022,0.047729124516535895,1265.9523964731438,15250.879969960935
0.6303151575787894,856.1075441665705,839.1631961325485,0.009711869539104566,0.0,0.1639184903389923,0.23388795660855455,0.04772897145075102,1265.8985725561627,15267.296752637822
0.64032016008004,857.2021013605491,840.7724064649584,0.00996230192801143,0.0,0.16399604320149974,0.23381030314193407,0.04772881236375203,1265.8443317214321,15283.72160676492
0.6503251625812906,858.2649286123682,842.3341051703228,0.010214610166048969,0.0,0.16407417274151556,0.23373206917987852,0.04772864723951336,1265.7896819387545,15300.153509629597
0.6603301650825413,859.2970128490937,843.8497818423489,0.010468758327395754,0.0,0.1641528678070616,0.23365326586834453,0.04772847606852353,1265.734630971505,15316.591473227625
0.6703351675837919,860.299308616418,845.3208765097872,0.010724711438690035,0.0,0.16423211754712838,0.23357390405625872,0.047728298847499684,1265.67918638052,15333.034543149493
0.6803401700850426,861.2727398148892,846.7487822726088,0.010982440029572207,0.0,0.16431191282314794,0.23349399288386033,0.047728115579095266,1265.6233545399234,15349.481797505023
0.6903451725862931,862.2183689373935,848.1350858567541,0.011243281907139935,0.0,0.16439266867711114,0.23341311731424377,0.0477279262713626,1265.5668461667278,15365.932347128533
0.7003501750875437,863.1372629427965,849.4813760079409,0.01150890734016872,0.0,0.16447490329526607,0.23333075916840626,0.047727730935769604,1265.5093000883057,15382.38534299359
0.7103551775887944,864.0298943249388,850.7883944231957,0.011776386325061455,0.0,0.16455770770873637,0.23324782742636535,0.047727529589945056,1265.4513498983115,15398.83995928865
0.720360180090045,864.8970617288244,852.0573442487548,0.01204560182110047,0.0,0.16464104562984336,0.23316435839051747,0.04772732225717279,1265.393020918411,15415.295394031715
0.7303651825912957,865.7395485624311,853.289404320053,0.012316524332522281,0.0,0.16472490793424563,0.2330803612027484,0.04772710896520698,1265.3343195420014,15431.75087282543
0.7403701850925463,866.5581131019944,854.4857152105479,0.012589125277890691,0.0,0.1648092857849193,0.23299584472026524,0.047726889745973916,1265.275251967059,15448.20564802156
0.7503751875937968,867.3534893529231,855.6473805692308,0.01286337685434932,0.0,0.16489417058979394,0.23291081755778117,0.04772666463528953,1265.2158242253342,15464.658997863096
0.7603801900950475,868.1263878899557,856.7754684225782,0.013139252018054602,0.0,0.16497955399543843,0.23282528809365563,0.04772643367258331,1265.156042186432,15481.110225654455
0.7703851925962981,868.8774966641262,857.8710124236761,0.01341672446514263,0.0,0.1650654278809184,0.23273926447586646,0.0477261969006298,1265.0959115617811,15497.558658958566
0.7803901950975487,869.607481779275,858.935013052866,0.013695768613019984,0.0,0.16515178435176198,0.23265275462787996,0.0477259543652879,1265.035437908537,15514.0036488186
0.7903951975987994,870.3169882381134,859.9684387701008,0.013976359582030886,0.0,0.16523861573404908,0.23256576625440178,0.04772570611524876,1264.9746266334057,15530.44456900506
0.80040020010005,871.0066406591384,860.9722271211527,0.014258473177508361,0.0,0.16532591456862872,0.23247830684700607,0.047725452201792855,1264.9134829963934,15546.880815287504
0.8104052026013007,871.6770439665958,861.9472858011562,0.014542085872182064,0.0,0.16541367360545461,0.23239038368965184,0.04772519267855608,1264.8520121144818,15563.311804729114
0.8204102051025512,872.3287840547118,862.8944936774801,0.014827174788943446,0.0,0.16550188579804034,0.2323020038640865,0.04772492760130547,1264.7902189652316,15579.736975003387
0.8304152076038018,872.9624284264318,863.8147017724172,0.015113717684000222,0.0,0.16559054429804387,0.23221317425512494,0.04772465702772455,1264.7281083903079,15596.155783733173
0.8404202101050525,873.5785268079613,864.7087342077899,0.01540169293041314,0.0,0.16567964244997913,0.23212390155580878,0.04772438101720841,1264.6656850989268,15612.56770785116
0.8504252126063031,874.1776117412304,865.5773891147787,0.01569107950197595,0.0,0.16576917378604286,0.23203419227245586,0.04772409963066843,1264.6029536712344,15628.972242979939
0.8604302151075538,874.7601991542716,866.421439509083,0.015981856957470137,0.0,0.1658591320210662,0.23194405272959143,0.047723812930346575,1264.5399185616113,15645.368902832068
0.8704352176088044,875.3267889102547,867.2416341326195,0.01627400542529883,0.0,0.16594951104759212,0.23185348907475906,0.047723520979639326,1264.476584101894,15661.757218629718
0.880440220110055,875.8778653366246,868.0386982640528,0.016567505588476715,0.0,0.16604030493107222,0.2317625072832187,0.047723223842930984,1264.412954504536,15678.136738542651
0.8904452226113057,876.4138977355202,868.8133345000109,0.016862338669959336,0.0,0.16613150790517625,0.23167111316253736,0.047722921585436014,1264.3490338656873,15694.507027143578
0.9004502251125562,876.9353408753946,869.5662235069489,0.017158486418338705,0.0,0.16622311436722365,0.2315793123570637,0.047722614273050516,1264.2848261682095,15710.867664881307
0.9104552276138069,877.4426354646974,870.2980247450383,0.017455931093897266,0.0,0.16631511887373396,0.23148711035228903,0.04772230197221235,1264.2203352846136,15727.218247570958
0.9204602301150575,877.936208609186,871.0093771665075,0.017754655454984197,0.0,0.16640751613608448,0.23139451247910667,0.04772198474976974,1264.155564979935,15743.558385899843
0.9304652326163081,878.4164742529732,871.7008998886677,0.018054642744729364,0.0,0.16650030101628027,0.23130152391796402,0.047721662672858094,1264.090518914537,15759.887704949095
0.9404702351175588,878.8838336036697,872.3731928422164,0.01835587667810041,0.0,0.16659346852283746,0.2312081497029064,0.047721335808784716,1264.0252006468475,15776.205843730864
0.9504752376188094,879.3386755425696,873.0268373963111,0.018658341429285377,0.0,0.16668701380677428,0.23111439472551787,0.04772100422492117,1263.9596136360285,15792.51245474026
0.9604802401200601,879.7813770209716,873.6623969621065,0.018962021619376063,0.0,0.1667809321577019,0.2310202637387669,0.04772066798860293,1263.8937612445832,15808.807203520995
0.9704852426213106,880.212303442429,874.2804175744932,0.019266902304374667,0.0,0.1668752190000216,0.23092576136075035,0.04772032716703608,1263.8276467408994,15825.089768245172
0.9804902451225612,880.6318090314996,874.8814284529454,0.019572968963516735,0.0,0.16696986988922646,0.23083089207833682,0.047719981827210725,1263.7612733017263,15841.359839306657
0.9904952476238119,881.040237190121,875.4659425432088,0.019880207487881336,0.0,0.16706488050829732,0.23073566025072015,0.04771963203582076,1263.6946440145935,15857.617118927052
1.0005002501250626,881.4379208418483,876.0344570402308,0.02018860416929115,0.0,0.16716024666419438,0.23064007011288074,0.04771927785918995,1263.6277618801714,15873.861320774024
1.0105052526263132,881.8251827640623,876.5874538925282,0.020498145689510458,0.0,0.16725596428444628,0.23054412577895375,0.047718919363203556,1263.5606298145678,15890.09216959209
1.0205102551275638,882.202335908772,877.1254002889658,0.02080881910972816,0.0,0.16735202941383268,0.2304478312455064,0.04771855661324576,1263.4932506515693,15906.309400845186
1.0305152576288144,882.5696837129713,877.6487491294235,0.021120611860298868,0.0,0.16744843821115116,0.23035119039473514,0.04771818967414218,1263.425627144828,15922.51276037017
1.040520260130065,882.9275203983385,878.1579394790582,0.021433511730759774,0.0,0.16754518694607448,0.23025420699757496,0.04771781861010748,1263.3577619699906,15938.702004041435
1.0505252626313157,883.2761312606449,878.6533970067478,0.021747506860118452,0.0,0.16764227199609574,0.23015688471672405,0.047717443484697614,1263.2896577267725,15954.876897446502
1.0605302651325663,883.6157929496544,879.1355344089095,0.02206258572738944,0.0,0.16773968984355506,0.23005922710959004,0.047717064360766594,1263.221316940982,15971.037215571614
1.070535267633817,883.9467737398603,879.6047518192422,0.02237873714237409,0.0,0.1678374370727449,0.22996123763115967,0.04771668130042741,1263.1527420664897,15987.182742497153
1.0805402701350675,884.2693337920075,880.0614372043372,0.02269595023669304,0.0,0.16793551036709772,0.22986291963678898,0.04771629436501701,1263.0839354871512,16003.31327110295
1.090545272636318,884.5837254058231,880.5059667458102,0.023014214455062177,0.0,0.16803390650645234,0.22976427638491748,0.047715903615064906,1263.0148995186748,16019.42860278307
1.1005502751375686,884.890193264744,880.938705210166,0.023333519546787126,0.0,0.1681326223643909,0.22966531103971297,0.04771550911026536,1262.9456364104458,16035.528547169248
1.1105552776388194,885.188974672504,881.3600063061981,0.02365385555748815,0.0,0.1682316549056508,0.22956602667364467,0.04771511090945291,1262.8761483473031,16051.61292186325
1.12056028014007,885.4802997817861,881.7702130302583,0.023975212821053204,0.0,0.1683310011836097,0.2294664262699843,0.047714709070580896,1262.8064374512658,16067.68155217785
1.1305652826413206,885.7643918154743,882.1696580002091,0.024297581951803524,0.0,0.1684306583378389,0.22936651272524117,0.04771430365070295,1262.7365057832196,16083.734270885967
1.1405702851425712,886.0414672809084,882.5586637786824,0.02462095383686046,0.0,0.1685306235917221,0.22926628885153327,0.0477138947059572,1262.6663553445562,16099.770917977514
1.1505752876438218,886.3117361770135,882.9375431854634,0.02494531962872398,0.0,0.1686308942501417,0.22916575737889286,0.047713482291553026,1262.5959880787732,16115.791340424148
1.1605802901450726,886.5754021945913,883.3065995994453,0.02527067073805594,0.0,0.16873146769723038,0.22906492095750747,0.047713066461760115,1262.5254058730256,16131.795391951595
1.1705852926463232,886.8326629103889,883.6661272510954,0.02559699882664747,0.0,0.16883234139418257,0.22896378215990354,0.0477126472698998,1262.4546105596455,16147.782932818938
1.1805902951475737,887.0837099749075,884.0164115053733,0.02592429580057632,0.0,0.16893351287712594,0.2288623434830702,0.04771222476833842,1262.3836039176156,16163.753829604904
1.1905952976488243,887.3287292940305,884.3577291352526,0.026252553803554728,0.0,0.16903497975505397,0.2287606073505242,0.047711799008482596,1262.312387674005,16179.707955001102
1.200600300150075,887.5679012048384,884.6903485863875,0.026581765210456913,0.0,0.16913673970781581,0.22865857611431767,0.04771137004077626,1262.2409635053689,16195.64518761177
1.2106053026513257,887.801400646022,885.0145302335624,0.02691192262101236,0.0,0.16923879048415885,0.22855625205699512,0.04771093791469937,1262.1693330391101,16211.56541175968
1.2206103051525763,888.0293973227413,885.3305266287008,0.027243018853674812,0.0,0.1693411298998273,0.2284536373934947,0.04771050267876808,1262.0974978548052,16227.468517298308
1.2306153076538269,888.2520558661307,885.6385827407431,0.02757504693966202,0.0,0.16944375583571503,0.2283507342729966,0.04771006438053639,1262.0254594854948,16243.35439943008
1.2406203101550775,888.4695359879055,885.9389361880823,0.027908000117150174,0.0,0.16954666623606726,0.22824754478072304,0.04770962306659899,1261.9532194189403,16259.22295853019
1.250625312656328,888.6819926301195,886.2318174636417,0.028241871825623793,0.0,0.1696498591067317,0.22814407093968966,0.0477091787825954,1261.8807790988476,16275.074099976002
1.2606303151575788,888.8895761100782,886.5174501526047,0.028576655700383882,0.0,0.1697533325134598,0.22804031471240782,0.04770873157321511,1261.808139926057,16290.907733981932
1.2706353176588294,889.0924322606461,886.7960511431635,0.02891234556720676,0.0,0.16985708458025553,0.22793627800253935,0.0477082814822038,1261.7353032597043,16306.723775439654
1.28064032016008,889.2907025663412,887.0678308308819,0.02924893543713961,0.0,0.1699611134877673,0.22783196265650943,0.04770782855237035,1261.6622704183458,16322.522143763115
1.2906453226613306,889.4845242950778,887.3329933164664,0.029586419501440774,0.0,0.1700654174717256,0.22772737046507366,0.04770737282559484,1261.5890426810604,16338.302762738607
1.3006503251625812,889.6740306256899,887.5917365971526,0.029924792126661704,0.0,0.17016999482142534,0.2276225031648415,0.04770691434283717,1261.5156212885158,16354.065560379648
1.310655327663832,889.8593507715606,887.8442527521973,0.03026404784985877,0.0,0.1702748438782488,0.22751736243975895,0.04770645314414643,1261.4420074440102,16369.810468786396
1.3206603301650826,890.0406101004758,888.0907281226586,0.03060418137393179,0.0,0.17037996303422875,0.22741194992255195,0.04770598926867085,1261.368202314485,16385.537424009428
1.3306653326663331,890.2179302506505,888.3313434853898,0.03094518756309358,0.0,0.17048535073065238,0.22730626719612895,0.04770552275466835,1261.2942070315098,16401.246365917938
1.3406703351675837,890.3914292430956,888.5662742215076,0.03128706143846518,0.0,0.17059100545670494,0.22720031579494432,0.047705053639517506,1261.2200226922432,16416.937238072212
1.3506753376688343,890.5612215906577,888.7956904798281,0.031629798173784106,0.0,0.17069692574814854,0.22709409720632673,0.047704581959729035,1261.1456503603642,16432.609987599913
1.360680340170085,890.727418403642,889.019757335144,0.03197339309123127,0.0,0.1708031101860384,0.22698761287177047,0.047704107750957625,1261.0710910669825,16448.264565076413
1.3706853426713357,890.8901274920887,889.2386349414569,0.032317841657375,0.0,0.17090955739547525,0.22688086418819042,0.04770363104801411,1260.996345811523,16463.900924408943
1.3806903451725863,891.0494534649328,889.4524786804997,0.03266313947922399,0.0,0.1710162660443926,0.22677385250914325,0.04770315188487782,1260.9214155625848,16479.519022724427
1.3906953476738368,891.2054978262051,889.6614393057995,0.03300928230038346,0.0,0.17112323484237515,0.2266665791460165,0.04770267029470949,1260.84630125878,16495.118820260774
1.4007003501750874,891.3583590681961,889.8656630821619,0.03335626599731941,0.0,0.17123046253951196,0.2265590453691839,0.047702186309864024,1260.7710038095483,16510.70028026166
1.4107053526763382,891.508132761702,890.0652919207562,0.03370408657572734,0.0,0.1713379479252813,0.2264512524091285,0.047701699961903675,1260.6955240959496,16526.26336887476
1.4207103551775888,891.6549116436162,890.260463510204,0.03405274016699468,0.0,0.17144568982746533,0.2263432014575367,0.04770121128161122,1260.6198629714363,16541.808055053083
1.4307153576788394,891.798785701833,890.4513114436133,0.034402223024760176,0.0,0.1715536871110948,0.2262348936683619,0.04770072029900338,1260.5440212626056,16557.334310459428
1.44072036018009,891.9398422574845,890.6379653416049,0.03475253152156989,0.0,0.17166193867742338,0.2261263301588584,0.047700227043344194,1260.4679997699268,16572.842109373985
1.4507253626813406,892.0781660446696,890.8205509715591,0.03510366214562435,0.0,0.17177044346293077,0.22601751201058703,0.04769973154315853,1260.391799268456,16588.33142860482
1.4607303651825914,892.2138392878497,890.9991903633533,0.03545561149761001,0.0,0.17187920043835211,0.22590844027039453,0.047699233826245566,1260.3154205085268,16603.802247401178
1.470735367683842,892.3469417768273,891.1740019214621,0.035808376287619556,0.0,0.1719882086077342,0.22579911595136526,0.04769873391969237,1260.238864216423,16619.254547369514
1.4807403701850925,892.4775509393913,891.3451005335523,0.03616195333215877,0.0,0.17209746700751943,0.2256895400337464,0.04769823184988736,1260.1621310950343,16634.68831239235
1.490745372686343,892.6057419118285,891.5125976758657,0.0365163395512315,0.0,0.1722069747056533,0.2255797134658486,0.04769772764253377,1260.0852218244943,16650.103528549553
1.5007503751875937,892.7315876073137,891.6766015154153,0.03687153196550336,0.0,0.1723167308007166,0.22546963716492247,0.04769722132266311,1260.0081370628004,16665.50018404214
1.5107553776888443,892.8551587821671,891.8372170089793,0.03722752769354531,0.0,0.1724267344210822,0.22535931201801002,0.04769671291464847,1259.930877446417,16680.87826911858
1.520760380190095,892.97652410009,891.9945459990555,0.037584323949153266,0.0,0.17253698472409548,0.22524873888277303,0.04769620244221784,1259.8534435908641,16696.237776003443
1.5307653826913457,893.0957501945453,892.1486873070302,0.03794191803873666,0.0,0.1726474808952758,0.2251379185882993,0.047695689928467226,1259.7758360912865,16711.57869882823
1.5407703851925962,893.2129017292117,892.2997368234556,0.03830030735878005,0.0,0.17275822214754083,0.22502685193588715,0.0476951753958738,1259.6980555230123,16726.901033564456
1.5507753876938468,893.3280414565672,892.447787595522,0.0386594893933762,0.0,0.17286920772045272,0.22491553969980715,0.04769465886630876,1259.620102442092,16742.204777958934
1.5607803901950974,893.4412302747477,892.5929299119362,0.03901946171182422,0.0,0.17298043687948456,0.2248039826280439,0.047694140361050165,1259.541977385826,16757.48993147104
1.5707853926963482,893.5525272827254,892.7352513852842,0.03938022196629197,0.0,0.17309190891530613,0.22469218144301797,0.04769361990079567,1259.4636808732764,16772.756495211976
1.5807903951975988,893.6619898337804,892.8748370318315,0.03974176788954399,0.0,0.17320362314309076,0.22458013684228756,0.047693097505675,1259.3852134057643,16788.004471886044
1.5907953976988494,893.7696735873353,893.0117693488705,0.040104097292732996,0.0,0.17331557890184077,0.22446784949923018,0.0476925731952623,1259.3065754673564,16803.23386573375
1.6008004002001,893.875632559307,893.1461283898423,0.040467208063247925,0.0,0.17342777555373115,0.22435532006370734,0.04769204698858846,1259.227767525335,16818.44468247673
1.6108054027013505,893.9799191709211,893.2779918371573,0.04083109816262185,0.0,0.1735402124834709,0.22424254916271044,0.047691518904153046,1259.1487900306583,16833.63692926442
1.6208104052026013,894.0825842960254,893.4074350727644,0.041195765624498656,0.0,0.17365288909768312,0.22412953740098832,0.047690988959936245,1259.0696434184056,16848.810614622467
1.630815407703852,894.1836773070002,893.5345312466195,0.041561208552654424,0.0,0.17376580482430132,0.22401628536165807,0.047690457173410535,1258.9903281082122,16863.96574840283
1.6408204102051025,894.2832461193366,893.6593513431583,0.04192742511907074,0.0,0.17387895911198245,0.22390279360679996,0.04768992356155226,1258.9108445046922,16879.10234173535
1.650825412706353,894.3813372348428,893.7819642457121,0.042294413562062184,0.0,0.17399235142953562,0.22378906267803525,0.047689388140852856,1258.8311929978502,16894.220406980985
1.6608304152076037,894.4779957835282,893.9024367989495,0.04266217218445641,0.0,0.17410598126536764,0.22367509309708783,0.04768885092733017,1258.7513739634796,16909.319957686548
1.6708354177088545,894.5732655642898,894.0208338695198,0.043030699351821085,0.0,0.17421984812694277,0.22356088536633176,0.04768831193653927,1258.6713877635532,16924.40100854082
1.680840420210105,894.6671890843774,894.1372184048696,0.04339999349073961,0.0,0.17433395154025721,0.22344643996932295,0.04768777118358334,1258.5912347466017,16939.463575332124
1.6908454227113556,894.7598075976448,894.2516514902456,0.043770053087135344,0.0,0.1744482910493291,0.22333175737131675,0.0476872286831242,1258.510915248082,16954.50767490727
1.7008504252126062,894.8511611416641,894.3641924039924,0.04414087668464143,0.0,0.17456286621570147,0.22321683801977069,0.04768668444939272,1258.4304295907348,16969.53332513181
1.7108554277138568,894.9412885737747,894.4748986712602,0.04451246288301298,0.0,0.17467767661795905,0.22310168234483452,0.04768613849619905,1258.3497780849339,16984.54054485156
1.7208604302151076,895.0302276060307,894.5838261160618,0.044884810336583876,0.0,0.17479272185125846,0.2229862907598265,0.04768559083694262,1258.268961029026,16999.52935385536
1.7308654327163582,895.1180148390805,894.6910289117346,0.045257917752766864,0.0,0.1749080015268716,0.22287066366169608,0.04768504148462194,1258.1879787096595,17014.49977283907
1.7408704352176088,895.204685795073,894.7965596299476,0.04563178389059286,0.0,0.175023515271741,0.22275480143147444,0.04768449045184428,1258.1068314021068,17029.451823370717
1.7508754377188593,895.2902749495917,894.9004692882517,0.04600640755928973,0.0,0.1751392627280473,0.2226387044347132,0.04768393775083509,1258.0255193705748,17044.385527856713
1.76088044022011,895.3748157626098,895.0028073961712,0.04638178761690112,0.0,0.17525524355278913,0.2225223730219105,0.047683383393447236,1257.944042868511,17059.30090950924
1.7708854427213607,895.4583407085187,895.1036219999067,0.046757922968943336,0.0,0.17537145741737445,0.22240580752892516,0.047682827391170086,1257.862402138897,17074.19799231465
1.7808904452226113,895.5408813053031,895.2029597257654,0.04713481256709679,0.0,0.17548790400722242,0.22228900827738052,0.04768226975513839,1257.7805974145383,17089.07680100292
1.7908954477238619,895.6224681428317,895.3008658222664,0.04751245540793411,0.0,0.17560458302137652,0.22217197557505666,0.04768171049614097,1257.6986289183417,17103.937361018023
1.8009004502251125,895.7031309102845,895.3973842009596,0.04789085053168398,0.0,0.17572149417212887,0.22205470971627198,0.04768114962462922,1257.6164968635894,17118.77969848938
1.810905452726363,895.7828984227851,895.4925574760566,0.04826999702102759,0.0,0.17583863718465398,0.22193721098225402,0.04768058715072546,1257.5342014542032,17133.603840204123
1.8209104552276139,895.8617986472615,895.5864270029047,0.04864989399992728,0.0,0.17595601179665263,0.22181947964150112,0.047680023084231055,1257.4517428850006,17148.409813580332
1.8309154577288644,895.9398587275131,895.6790329152811,0.049030540632488046,0.0,0.17607361775800603,0.2217015159501335,0.04767945743463439,1257.3691213419486,17163.19764664111
1.840920460230115,896.0171050085249,895.7704141615608,0.049411936121850755,0.0,0.176191454830439,0.2215833201522343,0.04767889021111869,1257.286337002404,17177.967367989524
1.8509254627313656,896.0935630600957,895.8606085398561,0.049794079709113793,0.0,0.17630952278719247,0.2214648924801828,0.047678321422569614,1257.2033900353538,17192.719006784362
1.8609304652326162,896.1692576997522,895.9496527320975,0.05017697067228464,0.0,0.17642782141270477,0.22134623315497712,0.04767775107758273,1257.1202806016433,17207.452592716643
1.870935467733867,896.2442130149705,896.0375823370723,0.05056060832526091,0.0,0.176546350502302,0.22122734238654887,0.04767717918447078,1257.0370088542022,17222.168155986954
1.8809404702351176,896.3184523847443,896.1244319024937,0.0509449920168386,0.0,0.17666510986189662,0.2211082203740689,0.047676605751270806,1256.9535749382624,17236.865727283508
1.8909454727363681,896.3919985005377,896.2102349561476,0.051330121129746595,0.0,0.17678409930769415,0.22098886730624495,0.04767603078575108,1256.8699789915702,17251.545337760883
1.9009504752376187,896.464873386599,896.2950240360868,0.05171599507970808,0.0,0.176903318665908,0.2208692833616112,0.04767545429541796,1256.7862211445934,17266.207019019523
1.9109554777388693,896.5370984196603,896.3788307199086,0.052102613314528326,0.0,0.1770227677724825,0.22074946870880965,0.04767487628752243,1256.7023015207233,17280.85080308586
1.9209604802401201,896.6086943480813,896.4616856532009,0.052489975313205955,0.0,0.17714244647282257,0.22062942350686393,0.04767429676906667,1256.6182202364676,17295.476722393134
1.9309654827413707,896.6796813104252,896.5436185771404,0.05287808058506854,0.0,0.17726235462153167,0.2205091479054461,0.04767371574681033,1256.5339774016436,17310.0848097628
1.9409704852426213,896.750078853467,896.6246583552468,0.053266928668932595,0.0,0.1773824920821563,0.22038864204513547,0.04767313322727672,1256.4495731195618,17324.675098386593
1.9509754877438719,896.8199059496766,896.7048329993459,0.05365651913228616,0.0,0.17750285872693786,0.22026790605767088,0.04767254921675881,1256.365007487207,17339.24762180915
1.9609804902451224,896.8891810142018,896.7841696947929,0.05404685157049279,0.0,0.17762345443657104,0.2201469400661959,0.0476719637213252,1256.2802805954123,17353.802413911235
1.970985492746373,896.9579219213397,896.8626948249273,0.05443792560601774,0.0,0.17774427909996882,0.22002574418549758,0.047671376746825735,1256.19539252903,17368.33950889351
1.9809904952476238,897.0261460205102,896.940433994784,0.054829740887675775,0.0,0.17786533261403387,0.2199043185222384,0.047670788298897225,1256.1103433670978,17382.858941260834
1.9909954977488744,897.0938701517754,897.0174120541284,0.055222297089898634,0.0,0.1779866148834364,0.219782663175182,0.04767019838296883,1256.025133183001,17397.36074580711
2.001000500250125,897.1611106609051,897.0936531198096,0.05561559391202221,0.0,0.1781081258203977,0.21966077823541302,0.047669607004267436,1255.939762044627,17411.844957600613
2.0110055027513756,897.2278834139867,897.169180597435,0.05600963107759373,0.0,0.1782298653444797,0.21953866378655076,0.04766901416782283,1255.8542300145207,17426.31161196982
2.0210105052526264,897.2942038116004,897.244017202394,0.05640440833369801,0.0,0.17835183338238064,0.21941631990495694,0.047668419878472805,1255.7685371500309,17440.760744489733
2.0310155077538767,897.3600868025991,897.3181849802896,0.05679992545030082,0.0,0.17847402986773547,0.21929374665993795,0.047667824140868044,1255.6826835034572,17455.192390968605
2.0410205102551275,897.4255468974739,897.3917053267489,0.0571961822196108,0.0,0.17859645474092256,0.21917094411394178,0.04766722695947702,1255.5966691221877,17469.606587435184
2.0510255127563783,897.490598181315,897.4645990066309,0.05759317845545895,0.0,0.178719107948875,0.21904791232274923,0.04766662833859066,1255.5104940488384,17484.003370126327
2.0610305152576287,897.5552543264063,897.5368861726806,0.05799091399269463,0.0,0.17884198944489743,0.21892465133566016,0.0476660282823269,1255.424158321386,17498.38277547507
2.0710355177588795,897.6195286044548,897.608586383639,0.05838938868659759,0.0,0.1789650991884877,0.2188011611956748,0.04766542679463521,1255.337661973295,17512.744840099094
2.08104052026013,897.6834338984538,897.6797186218004,0.05878860241230618,0.0,0.17908843714516312,0.21867744193966993,0.047664823879300905,1255.2510050336468,17527.089600789568
2.0910455227613807,897.7469827141923,897.750301310042,0.05918855506426176,0.0,0.17921200328629208,0.21855349359857018,0.047664219539949426,1255.164187527261,17541.41709450038
2.1010505252626315,897.8101871914477,897.8203523283704,0.05958924655566694,0.0,0.1793357975889296,0.21842931619751516,0.04766361378005046,1255.0772094748143,17555.727358337732
2.111055527763882,897.8730591148435,897.889889029971,0.05999067681795898,0.0,0.1794598200356573,0.2183049097560216,0.04766300660292193,1254.990070892957,17570.020429550124
2.1210605302651326,897.9356099243854,897.9589282567667,0.06039284580029779,0.0,0.17958407061442838,0.21818027428814152,0.04766239801173403,1254.9027717944264,17584.29634551862
2.131065532766383,897.9978507256958,898.0274863545228,0.060795753469067494,0.0,0.17970854931841623,0.2180554098026156,0.047661788009512915,1254.815312188156,17598.5551437475
2.141070535267634,898.0597922999591,898.095579187515,0.06119939980739107,0.0,0.17983325614586707,0.2179303163030227,0.04766117659914455,1254.727692079382,17612.796861855215
2.151075537768884,898.1214451135744,898.1632221527502,0.06160378481465844,0.0,0.179958191099957,0.2178049937879259,0.04766056378337828,1254.6399114697492,17627.021537565644
2.161080540270135,898.1828193275218,898.2304301937548,0.062008908506067696,0.0,0.18008335418865248,0.2176794422510133,0.04765994956483036,1254.5519703574105,17641.22920869969
2.1710855427713858,898.2439248064724,898.2972178139722,0.0624147709121779,0.0,0.18020874542457502,0.21755366168123622,0.04765933394598745,1254.4638687371255,17655.419913167134
2.181090545272636,898.3047711276377,898.3635990897566,0.06282137207847414,0.0,0.18033436482486895,0.2174276520629432,0.04765871692920993,1254.3756066003573,17669.593688958776
2.191095547773887,898.3653675893567,898.4295876829708,0.06322871206494467,0.0,0.1804602124110732,0.21730141337601044,0.0476580985167352,1254.2871839353654,17683.750574138892
2.2011005502751373,898.4257232194426,898.4951968532083,0.06363679094566917,0.0,0.1805862882089965,0.2171749455959685,0.047657478710680816,1254.1986007272965,17697.890606837907
2.211105552776388,898.4858467833022,898.5604394696651,0.06404560880841786,0.0,0.1807125922485956,0.21704824869412623,0.047656857513047664,1254.1098569582728,17712.013825245354
2.221110555277639,898.5457467918224,898.6253280226466,0.06445516575426144,0.0,0.18083912456385698,0.2169213226376906,0.04765623492572292,1254.0209526074768,17726.120267603073
2.2311155577788893,898.6054315090282,898.6898746347231,0.06486546189719174,0.0,0.18096588519268186,0.216794167389884,0.04765561095048302,1253.931887651238,17740.20997219867
2.24112056028014,898.6649089595417,898.7540910715602,0.06527649736375239,0.0,0.18109287417677408,0.21666678291005792,0.0476549855889965,1253.8426620631112,17754.282977359202
2.2511255627813904,898.7241869358321,898.8179887524275,0.0656882722926789,0.0,0.18122009156153093,0.21653916915380392,0.047654358842826816,1253.7532758139578,17768.33932144509
2.2611305652826412,898.7832730052677,898.8815787603816,0.06610078683454897,0.0,0.181347537395937,0.21641132607306146,0.047653730713435045,1253.6637288720215,17782.379042844226
2.271135567783892,898.8421745169718,898.9448718521385,0.06651404115144181,0.0,0.181475211732461,0.21628325361622283,0.0476531012021825,1253.5740212030048,17796.402179966357
2.2811405702851424,898.9008986085092,899.0078784676617,0.06692803541660643,0.0,0.18160311462695491,0.2161549517282356,0.047652470310333386,1253.4841527701417,17810.408771237635
2.291145572786393,898.959452212391,899.0706087394511,0.06734276981413857,0.0,0.1817312461385563,0.21602642035070194,0.047651838039057176,1253.3941235342675,17824.398855095358
2.3011505752876436,899.0178420624068,899.1330725015432,0.06775824453866675,0.0,0.18185960632959264,0.21589765942197559,0.0476512043894312,1253.3039334538912,17838.372469982954
2.3111555777888944,899.0760746998019,899.1952792982416,0.06817445979504609,0.0,0.18198819526548882,0.2157686688772563,0.047650569362442906,1253.213582485259,17852.329654345103
2.321160580290145,899.1341564793032,899.2572383925843,0.06859141579806005,0.0,0.18211701301467648,0.21563944864868148,0.04764993295899222,1253.123070582424,17866.270446623086
2.3311655827913955,899.1920935749944,899.3189587745414,0.06900911277213026,0.0,0.18224605964850604,0.21550999866541604,0.04764929517989382,1253.0323976973073,17880.194885250286
2.3411705852926463,899.2498919860501,899.380449168955,0.06942755095103414,0.0,0.18237533524116095,0.21538031885373915,0.047648656025879275,1252.941563779761,17894.103008647875
2.3511755877938967,899.3075575423455,899.4417180432409,0.06984673057762925,0.0,0.18250483986957433,0.21525040913712923,0.04764801549759922,1252.85056877763,17907.994855220695
2.3611805902951475,899.3650959099396,899.5027736148446,0.07026665190358503,0.0,0.18263457361334715,0.2151202694363469,0.04764737359562544,1252.7594126368106,17921.870463353247
2.3711855927963983,899.4225125964391,899.5636238584522,0.07068731518912164,0.0,0.1827645365546694,0.2149898996695151,0.04764673032045286,1252.668095301307,17935.729871405878
2.3811905952976486,899.479812956254,899.6242765129756,0.07110872070275524,0.0,0.18289472877824264,0.21485929975219795,0.04764608567250155,1252.576616713289,17949.573117711152
2.3911955977988995,899.5370021957592,899.684739088315,0.07153086872104981,0.0,0.1830251503712048,0.21472846959747707,0.04764543965211867,1252.4849768131462,17963.400240570325
2.40120060030015,899.5940853783571,899.7450188718942,0.07195375952837499,0.0,0.1831558014230565,0.21459740911602637,0.04764479225958025,1252.3931755395408,17977.211278249968
2.4112056028014006,899.6510674294561,899.8051229349729,0.07237739341667045,0.0,0.1832866820255899,0.2144661182161845,0.047644143495093126,1252.3012128294606,17991.006268978803
2.4212106053026514,899.7079531413794,899.865058138755,0.07280177068521572,0.0,0.18341779227281851,0.21433459680402592,0.04764349335879663,1252.209088618269,18004.785250944584
2.431215607803902,899.7647471782055,899.9248311402857,0.07322689164040566,0.0,0.18354913226090944,0.2142028447834302,0.047642841850764416,1252.1168028397547,18018.548262291224
2.4412206103051526,899.8214540805509,899.9844483981336,0.07365275659553162,0.0,0.18368070208811657,0.21407086205614928,0.047642188971006035,1252.024355426179,18032.295341115954
2.451225612806403,899.8780782703055,900.0439161778727,0.0740793658705677,0.0,0.1838125018547162,0.21393864852187355,0.047641534719468664,1251.931746308326,18046.026525466703
2.4612306153076537,899.9346240553401,900.1032405573669,0.07450671979196195,0.0,0.1839445316629433,0.21380620407829615,0.04764087909603872,1251.8389754155442,18059.74185333956
2.4712356178089045,899.9910956341816,900.1624274318513,0.07493481869243247,0.0,0.18407679161692975,0.21367352862117575,0.047640222100543354,1251.7460426757953,18073.441362676414
2.481240620310155,900.0474971006774,900.2214825188108,0.07536366291076824,0.0,0.18420928182264393,0.21354062204439805,0.047639563732752084,1251.6529480156962,18087.125091362635
2.4912456228114057,900.1038324486624,900.280411362668,0.07579325279163439,0.0,0.18434200238783185,0.21340748424003578,0.04763890399237818,1251.559691360562,18100.793077225004
2.501250625312656,900.1601055766387,900.3392193392742,0.07622358868538148,0.0,0.18447495342195883,0.21327411509840757,0.04763824287908023,1251.4662726344488,18114.44535802967
2.511255627813907,900.2163202924829,900.3979116601998,0.07665467094785901,0.0,0.18460813503615328,0.2131405145081353,0.04763758039246349,1251.372691760194,18128.081971480293
2.5212606303151577,900.2724803181936,900.456493376828,0.07708649994023278,0.0,0.18474154734315107,0.21300668235620054,0.047636916532081346,1251.2789486594565,18141.702955216282
2.531265632816408,900.3285892947057,900.5149693842546,0.07751907602880563,0.0,0.18487519045724127,0.21287261852799966,0.04763625129743662,1251.185043252758,18155.30834681119
2.541270635317659,900.3846507867769,900.5733444249871,0.07795239958484172,0.0,0.18500906449421267,0.2127383229073983,0.04763558468798297,1251.0909754595186,18168.89818377118
2.551275637818909,900.4406682879718,900.6316230924357,0.07838647098439402,0.0,0.18514316957130167,0.21260379537678417,0.04763491670312616,1250.9967451980988,18182.472503533718
2.56128064032016,900.4966452257654,900.6898098342044,0.0788212906081347,0.0,0.18527750580714047,0.2124690358171196,0.047634247342225385,1250.9023523858323,18196.031343466282
2.571285642821411,900.5525849667855,900.7479089551751,0.07925685884118795,0.0,0.1854120733217067,0.2123340441079931,0.04763357660459453,1250.8077969390665,18209.574740865297
2.581290645322661,900.6084908222208,900.8059246203735,0.07969317607296562,0.0,0.18554687223627309,0.21219882012766988,0.047632904489503414,1250.7130787731974,18223.102732955143
2.591295647823912,900.6643660534158,900.8638608576155,0.08013024269700504,0.0,0.18568190267335874,0.2120633637531419,0.04763223099617902,1250.6181978027053,18236.615356887345
2.6013006503251623,900.7202138776915,900.9217215599333,0.08056805911080825,0.0,0.18581716475667998,0.21192767486017755,0.04763155612380674,1250.5231539411905,18250.112649739858
2.611305652826413,900.7760374744103,900.9795104877684,0.08100662571568354,0.0,0.1859526586111023,0.2117917533233704,0.047630879871531535,1250.4279471014074,18263.59464851658
2.621310655327664,900.831839991329,901.0372312709204,0.0814459429165879,0.0,0.18608838436259276,0.21165559901618788,0.047630202238459186,1250.3325771953007,18277.061390146893
2.6313156578289143,900.8876245512721,901.0948874102488,0.08188601112197064,0.0,0.18622434213817213,0.21151921181101935,0.04762952322365739,1250.237044134039,18290.512911485475
2.641320660330165,900.9433942591648,901.1524822791204,0.08232683074361778,0.0,0.18636053206586808,0.2113825915792241,0.04762884282615702,1250.1413478280485,18303.949249312238
2.6513256628314155,900.9991522094742,901.210019124581,0.08276840219649657,0.0,0.1864969542746676,0.2112457381911796,0.04762816104495328,1250.045488187048,18317.370440332415
2.6613306653326663,901.0549014940984,901.2675010682469,0.08321072589860053,0.0,0.18663360889447023,0.21110865151632888,0.04762747787900682,1249.949465120084,18330.77652117686
2.671335667833917,901.110645210763,901.3249311069035,0.08365380227079333,0.0,0.18677049605604054,0.21097133142322874,0.04762679332724501,1249.8532785355626,18344.16752840251
2.6813406703351674,901.1663864719765,901.3823121127982,0.08409763173665259,0.0,0.18690761589096064,0.21083377777959822,0.047626107388563016,1249.7569283412863,18357.5434984931
2.6913456728364182,901.222128414607,901.4396468336065,0.08454221472231215,0.0,0.18704496853158256,0.21069599045236712,0.04762542006182512,1249.6604144444877,18370.90446786003
2.7013506753376686,901.2778742101481,901.4969378920609,0.08498755165630263,0.0,0.18718255411097942,0.21055796930772472,0.047624731345865784,1249.5637367518648,18384.250472843505
2.7113556778389194,901.3336270757436,901.5541877852337,0.08543364296938996,0.0,0.18732037276289673,0.21041971421117037,0.047624041239490975,1249.4668951696167,18397.581549713897
2.72136068034017,901.3893902860516,901.6113988834462,0.0858804890944111,0.0,0.1874584246217025,0.21028122502756355,0.04762334974147936,1249.3698896034794,18410.897734673385
2.7313656828414206,901.4451671860348,901.6685734287935,0.08632809046610665,0.0,0.18759670982233626,0.21014250162117565,0.0476226568505836,1249.272719958763,18424.199063857875
2.7413706853426714,901.5009612047651,901.7257135332732,0.08677644752094978,0.0,0.18773522850025706,0.2100035438557429,0.047621962565531646,1249.17538614039,18437.485573339178
2.7513756878439217,901.5567758703442,901.7828211765042,0.0872255606969704,0.0,0.18787398079139053,0.20986435159452038,0.047621266885028046,1249.0778880529322,18450.757299127596
2.7613806903451725,901.6126148260496,901.8398982030184,0.08767543043357502,0.0,0.1880129668320735,0.20972492470033785,0.047620569807755364,1248.9802256006528,18464.014277174752
2.7713856928464233,901.6684818478248,901.8969463191174,0.08812605717136023,0.0,0.188152186758998,0.20958526303565686,0.04761987133237557,1248.8823986875461,18477.256543376905
2.7813906953476737,901.7243808632279,901.9539670892993,0.08857744135192046,0.0,0.1882916407091524,0.2094453664626306,0.04761917145753153,1248.7844072173798,18490.48413357857
2.7913956978489245,901.7803159719823,902.0109619322462,0.0890295834176487,0.0,0.18843132881976135,0.2093052348431649,0.04761847018184849,1248.6862510937399,18503.697083576655
2.801400700350175,901.836291468275,902.0679321163782,0.08948248381152936,0.0,0.1885712512282224,0.20916486803898238,0.04761776750393573,1248.5879302200747,18516.895429125023
2.8114057028514257,901.8923118649491,902.1248787550011,0.08993614297692323,0.0,0.18871140807204118,0.2090242659116887,0.04761706342238815,1248.4894444997449,18530.0792059396
2.8214107053526765,901.9483819197457,902.1818028010766,0.09039056135734325,0.0,0.1888517994887629,0.20888342832284187,0.04761635793578808,1248.3907938360692,18543.248449704028
2.831415707853927,902.0045066637829,902.2387050416482,0.09084573939622098,0.0,0.18899242561590182,0.20874235513402403,0.04761565104270697,1248.2919781323799,18556.40319607588
2.8414207103551776,902.0606914324488,902.2955860919952,0.0913016775366631,0.0,0.18913328659086698,0.2086010462069169,0.04761494274170739,1248.1929972920736,18569.54348069362
2.851425712856428,902.1169418988761,902.3524463896056,0.09175837622119719,0.0,0.18927438255088522,0.20845950140337988,0.0476142330313449,1248.0938512186688,18582.669339184176
2.861430715357679,902.1732641102085,902.409286188079,0.09221583589150732,0.0,0.18941571363292087,0.20831772058553194,0.04761352191017015,1247.9945398158634,18595.780807171308
2.8714357178589296,902.2296645268655,902.4661055511062,0.09267405698815827,0.0,0.1895572799735919,0.20817570361583648,0.047612809376731055,1247.8950629875962,18608.877920284813
2.88144072036018,902.2861500649918,902.5229043467257,0.09313303995030939,0.0,0.18969908170908323,0.20803345035718981,0.047612095429574924,1247.795420638109,18621.960714170604
2.8914457228614308,902.3427281422801,902.5796822421075,0.09359278521541832,0.0,0.1898411189750566,0.20789096067301238,0.047611380067250846,1247.6956126720129,18635.029224501748
2.901450725362681,902.3994067273866,902.6364386991573,0.09405329321893503,0.0,0.18998339190655777,0.20774823442734325,0.04761066328831202,1247.5956389943558,18648.083486990537
2.911455727863932,902.4561943931324,902.6931729713178,0.09451456439398792,0.0,0.1901259006379211,0.20760527148493707,0.047609945091318245,1247.4954995106903,18661.123537401672
2.9214607303651827,902.5131003736177,902.7498841020428,0.09497659917106377,0.0,0.19026864530267243,0.20746207171136272,0.047609225474838354,1247.3951941271466,18674.149411566636
2.931465732866433,902.5701346254239,902.8065709254905,0.09543939797768418,0.0,0.19041162603343084,0.20731863497310307,0.047608504437452785,1247.2947227505008,18687.161145399314
2.941470735367684,902.6273078930348,902.8632320701012,0.09590296123808206,0.0,0.19055484296181044,0.20717496113765516,0.04760778197775605,1247.1940852882497,18700.158774913045
2.9514757378689342,902.6846317785382,902.9198659658633,0.09636728937288273,0.0,0.19069829621832332,0.20703105007362818,0.04760705809435919,1247.0932816486775,18713.142336239023
2.961480740370185,902.7421188155859,902.9764708562113,0.09683238279879568,0.0,0.19084198593228613,0.20688690165083898,0.04760633278589215,1246.9923117409267,18726.111865646297
2.971485742871436,902.7997825476165,903.0330448156409,0.0972982419283242,0.0,0.19098591223173167,0.20674251574040134,0.04760560605100604,1246.8911754750602,18739.067399563402
2.981490745372686,902.8576376102147,903.0895857743102,0.09776486716950211,0.0,0.19113007524332912,0.2065978922148077,0.04760487788837506,1246.7898727621214,18752.00897460165
2.991495747873937,902.9156998173046,903.1460915510927,0.09823225892566896,0.0,0.19127447509231532,0.20645303094799802,0.047604148296698165,1246.688403514181,18764.93662758021
3.0015007503751874,902.9739862508379,903.2025598967101,0.09870041759529675,0.0,0.19141911190244237,0.2063079318154138,0.0476034172747003,1246.5867676443768,18777.85039555311
3.011505752876438,903.0325153535084,903.2589885487785,0.09916934357188488,0.0,0.1915639857959453,0.20616259469403025,0.04760268482113304,1246.4849650669375,18790.75031583806
3.0215107553776885,903.0913070237998,903.3153753007952,0.09963903724394148,0.0,0.19170909689353643,0.20601701946236217,0.04760195093477448,1246.3829956971842,18803.636426047313
3.0315157578789393,903.150382712412,903.3717180872289,0.10010949899507463,0.0,0.1918544453144326,0.205871206000436,0.047601215614428254,1246.2808594515122,18816.508764120474
3.04152076038019,903.2097655190613,903.4280150870243,0.10058072920421765,0.0,0.19200003117642334,0.2057251541897203,0.04760047885892142,1246.178556247342,18829.367368359344
3.0515257628814405,903.2694802883426,903.4842648479054,0.1010527282460188,0.0,0.1921458545959886,0.2055788639130056,0.047599740667100904,1246.076086003029,18842.212277464692
3.0615307653826913,903.3295537029711,903.5404664338402,0.10152549649142786,0.0,0.19229191568847673,0.20543233505422365,0.04759900103782836,1245.9734486377383,18855.04353057502
3.0715357678839417,903.3900143725405,903.5966195979039,0.10199903430851623,0.0,0.19243821456835256,0.2052855674981944,0.04759825996997308,1245.870644071261,18867.86116730707
3.0815407703851925,903.4508929157236,903.6527249825809,0.10247334206357073,0.0,0.1925847513495289,0.2051385611302886,0.047597517462402546,1245.767672223773,18880.665227798087
3.0915457728864433,903.5122220334683,903.7087843491219,0.10294842012250381,0.0,0.1927315261457939,0.20499131583599298,0.047596773513970375,1245.6645330155245,18893.455752749574
3.1015507753876936,903.5740365703582,903.7648008368639,0.10342426885262578,0.0,0.19287853907134808,0.2048438315003636,0.047596028123501305,1245.5612263664464,18906.23278347228
3.1115557778889444,903.6363735613195,903.8207792527116,0.10390088862482504,0.0,0.19302579024146538,0.2046961080073532,0.047595281289772556,1245.4577521956703,18918.996361932142
3.121560780390195,903.69927226058,903.8767263899039,0.10437827981620316,0.0,0.1931732797732915,0.20454814523899845,0.047594533011491635,1245.3541104209455,18931.746530796816
3.1315657828914456,903.762774149548,903.932651373748,0.10485644281320883,0.0,0.1933210077867941,0.2043999430744531,0.04759378328726976,1245.2503009579482,18944.48333348234
3.1415707853926964,903.8269229203207,903.9885660304203,0.10533537801531043,0.0,0.19346897440587627,0.20425150138885528,0.047593032115590864,1245.146323719469,18957.2068141994
3.1515757878939468,903.8917644317687,904.0444852733335,0.10581508583924139,0.0,0.19361717975966336,0.20410282005201738,0.04759227949477575,1245.0421786144748,18969.91701799862
3.1615807903951976,903.9573466352294,904.1004274995672,0.10629556672384297,0.0,0.19376562398397104,0.20395389892693253,0.04759152542294117,1244.9378655470412,18982.613990814334
3.171585792896448,904.0237194671184,904.1564149865669,0.1067768211355139,0.0,0.1939143072229577,0.20380473786809306,0.047590769897953925,1244.8333844151464,18995.297779505938
3.1815907953976987,904.0909347065624,904.21247427775,0.10725884957426432,0.0,0.19406322963095946,0.20365533671962283,0.04759001291737961,1244.728735109336,19007.96843189627
3.1915957978989495,904.1590457967789,904.2686365438976,0.10774165258035152,0.0,0.19421239137450225,0.2035056953132303,0.04758925447842669,1244.6239175112557,19020.625996806128
3.2016008004002,904.2281076297161,904.3249379056118,0.10822523074145386,0.0,0.19436179263447664,0.2033558134659947,0.0475884945778857,1244.5189314920683,19033.270524084175
3.2116058029014507,904.2981762945351,904.3814197012107,0.10870958470031385,0.0,0.19451143360845471,0.20320569097800853,0.04758773321206456,1244.4137769107642,19045.902064631427
3.221610805402701,904.3693087917636,904.4381286847935,0.1091947151627618,0.0,0.19466131451312266,0.20305532762990178,0.047586970376720446,1244.3084536123893,19058.520670419606
3.231615807903952,904.4415627159921,904.4951171396738,0.10968062290600782,0.0,0.19481143558679462,0.20290472318028366,0.04758620606698927,1244.202961426213,19071.12639450266
3.2416208104052027,904.5149959112017,904.5524428936258,0.11016730878705983,0.0,0.19496179709196412,0.20275387736314537,0.047585440277313776,1244.09730016387,19083.71929102078
3.251625812906453,904.5896661040385,904.6101692255244,0.11065477375111392,0.0,0.19511239931784735,0.20260278988527147,0.04758467300137161,1243.991469617504,19096.29941519652
3.261630815407704,904.665630521275,904.668364656375,0.11114301883974735,0.0,0.19526324258286648,0.20245146042371198,0.04758390423200468,1243.8854695579582,19108.866823322565
3.271635817908954,904.7429454984906,904.7271026216051,0.1116320451987331,0.0,0.19541432723701763,0.20229988862337134,0.04758313396115124,1243.7792997330498,19121.421572741
3.281640820410205,904.8216660876983,904.7864610260953,0.11212185408528524,0.0,0.195565653664066,0.20214807409477292,0.047582362179782324,1243.6729598659663,19133.963721813998
3.291645822911456,904.9018456717722,904.8465216888508,0.11261244687456153,0.0,0.19571722228351582,0.20199601641205292,0.04758158887784373,1243.566449653828,19146.493329885994
3.301650825412706,904.9835355934647,904.9073696885374,0.1131038250652553,0.0,0.19586903355230284,0.20184371511123483,0.04758081404420512,1243.4597687664518,19159.01045723782
3.311655827913957,905.0667848065948,904.9690926252686,0.1135959902841198,0.0,0.1960210879661637,0.20169116968883397,0.04758003766661737,1243.352916845348,19171.515165033044
3.3216608304152073,905.1516395562271,905.0317798178904,0.11408894428929832,0.0,0.19617338606064172,0.2015383796008298,0.04757925973167906,1243.245893502984,19184.00751525733
3.331665832916458,905.2381430935928,905.0955214584471,0.11458268897236913,0.0,0.19632592841170277,0.20138534426203564,0.04757848022481303,1243.1386983223265,19196.487570651396
3.341670835417709,905.3263354304723,905.1604077466872,0.11507722635903671,0.0,0.19647871563593977,0.20123206304588556,0.047577699130253226,1243.0313308566867,19208.95539463862
3.3516758379189593,905.4162531366928,905.2265280278453,0.11557255860843066,0.0,0.1966317483903546,0.2010785352846514,0.047576916431042324,1242.9237906298695,19221.411051248084
3.36168084042021,905.5079291826512,905.2939699559533,0.11606868801102084,0.0,0.19678502737171882,0.20092476027008657,0.04757613210903984,1242.8160771366304,19233.854605034176
3.3716858429214605,905.60139282756,905.3628187027261,0.11656561698518297,0.0,0.19693855331552487,0.20077073725448696,0.04757534614494043,1242.7081898434262,19246.286120993667
3.3816908454227113,905.6966695530638,905.4331562294691,0.11706334807246899,0.0,0.19709232699454315,0.20061646545215112,0.04757455851830171,1242.6001281894546,19258.705664481415
3.391695847923962,905.793781040614,905.5050606361157,0.11756188393166556,0.0,0.19724634921701065,0.2004619440412151,0.04757376920758101,1242.4918915879584,19271.113301125526
3.4017008504252124,905.8927451897825,905.578605597482,0.11806122733174829,0.0,0.19740062082448329,0.20030717216582813,0.047572978190179895,1242.3834794277732,19283.509096743055
3.4117058529264632,905.993576174138,905.653859893185,0.11856138114384375,0.0,0.19755514268938612,0.2001521489386348,0.04757218544249548,1242.2748910750943,19295.893117257005
3.4217108554277136,906.0962845309303,905.7308870344558,0.11906234833231287,0.0,0.19770991571229604,0.1999968734435287,0.04757139093997737,1242.1661258754368,19308.265428615403
3.4317158579289644,906.200877280029,905.809744987233,0.1195641319450841,0.0,0.19786494081899464,0.19984134473863813,0.04757059465718916,1242.0571831557581,19320.62609671322
3.441720860430215,906.3073580675104,905.8904859881642,0.12006673510335282,0.0,0.1980202189573278,0.19968556185950748,0.04756979656787317,1241.948062226721,19332.975187317523
3.4517258629314655,906.41572732945,905.9731564481563,0.12057016099075439,0.0,0.1981757510939035,0.19952952382244207,0.047568996645017535,1241.838762385074,19345.312765996525
3.4617308654327164,906.5259824715386,906.0577969363592,0.12107441284210706,0.0,0.19833153821065727,0.19937322962798573,0.0475681948609244,1241.7292829161195,19357.638898052766
3.4717358679339667,906.6381180601206,906.1444422357241,0.12157949393181203,0.0,0.19848758130131108,0.1992166782645051,0.047567391187278436,1241.6196230962632,19369.953648460712
3.4817408704352175,906.7521260207905,906.2331214609374,0.12208540756197585,0.0,0.198643881367746,0.19905986871186018,0.04756658559521476,1241.5097821956174,19382.25708180897
3.4917458729364683,906.8679958411816,906.3238582295794,0.1225921570503021,0.0,0.19880043941630138,0.19890279994514704,0.04756577805538556,1241.3997594806565,19394.5492622472
3.5017508754377187,906.9857147747194,906.4166708768855,0.12309974571778601,0.0,0.1989572564540122,0.19874547093850176,0.047564968538024784,1241.289554216914,19406.830253437816
3.5117558779389695,907.105268042603,906.5115727049574,0.12360817687622244,0.0,0.1991143334847851,0.1985878806689632,0.047564157013010415,1241.1791656717176,19419.10011851222
3.52176088044022,907.2266390318083,906.6085722581424,0.12411745381551863,0.0,0.19927167150551292,0.19843002812039684,0.04756334344992395,1241.0685931169653,19431.35892003174
3.5317658829414706,907.3498094873089,906.7076736170899,0.12462757979078813,0.0,0.1994292715021168,0.19827191228748736,0.04756252781810668,1240.957835831947,19443.60671995301
3.5417708854427215,907.4747596968961,906.8088767043276,0.1251385580091802,0.0,0.19958713444550533,0.19811353217981417,0.047561710086712665,1240.8468931062216,19455.84357959753
3.551775887943972,907.6014686674733,906.9121775954138,0.12565039161637956,0.0,0.19974526128742653,0.19795488682602946,0.04756089022475825,1240.7357642425638,19468.069559625375
3.5617808904452226,907.7299142920456,907.0175688307593,0.12616308368269918,0.0,0.19990365295619178,0.1977959752781643,0.047560068201168,1240.6244485599964,19480.284720012714
3.571785892946473,907.8600735067852,907.1250397237319,0.1266766371886672,0.0,0.20006231035223931,0.19763679661609151,0.04755924398481708,1240.5129453969298,19492.48912003298
3.5817908954477238,907.9919224377948,907.2345766614352,0.12719105500998873,0.0,0.20022123434350064,0.197477349952184,0.04755841754457014,1240.4012541144364,19504.68281824135
3.5917958979489746,908.1254365374426,907.3461633954495,0.1277063399017456,0.0,0.2003804257605276,0.19731763443620998,0.047557588849316726,1240.2893740996853,19516.86587246239
3.601800900450225,908.2605907103098,907.459781320518,0.1282224944816888,0.0,0.2005398853913351,0.19715764926051063,0.04755675786800347,1240.1773047695742,19529.038339780585
3.6118059029514757,908.3973594288312,907.5754097394142,0.12873952121244323,0.0,0.2006996139759036,0.196997393665516,0.04755592456966294,1240.0650455745913,19541.20027653347
3.621810905452726,908.535716838891,907.6930261129133,0.12925742238242618,0.0,0.20085961220027995,0.19683686694566022,0.04755508892343958,1239.9525960029584,19553.351738307192
3.631815907953977,908.6756368557,907.8126062942699,0.1297762000852692,0.0,0.2010198806902112,0.19667606845576285,0.04755425089861271,1239.8399555850906,19565.492779934237
3.6418209104552277,908.8170932503232,907.934124747833,0.1302958561975038,0.0,0.2011804200042375,0.19651499761794816,0.04755341046461697,1239.7271238984351,19577.623455493107
3.651825912956478,908.9600597272545,908.0575547516668,0.13081639235423487,0.0,0.20134123062615836,0.19635365392919069,0.04755256759105999,1239.6141005727393,19589.74381830976
3.661830915457729,909.1045099934905,908.1828685843799,0.13133780992249894,0.0,0.20150231295677876,0.19619203696957865,0.04755172224773808,1239.500885295822,19601.85392096055
3.6718359179589792,909.2504178195356,908.3100376965511,0.13186010997199618,0.0,0.20166366730483823,0.19603014641139352,0.04755087440464943,1239.387477819909,19613.953815276607
3.68184092046023,909.397757092781,908.439032867157,0.13238329324281756,0.0,0.2018252938770056,0.19586798202912217,0.047550024032005596,1239.2738779686174,19626.043552349343
3.691845922961481,909.546501863692,908.5698243455806,0.13290736010975165,0.0,0.2019871927668118,0.19570554371053045,0.04754917110024104,1239.1600856446803,19638.123182536972
3.701850925462731,909.6966263852186,908.7023819798623,0.13343231054272933,0.0,0.20214936394238148,0.1955428314689364,0.047548315580021025,1239.046100838504,19650.192755471944
3.711855927963982,909.8481051458074,908.8366753318627,0.1339581440629189,0.0,0.20231180723281497,0.19537984545683243,0.04754745744224812,1238.9319236376648,19662.25232006907
3.7218609304652324,910.0009128963902,908.9726737800106,0.13448485969389476,0.0,0.2024745223130394,0.19521658598103742,0.04754659665806732,1238.8175542374731,19674.30192453423
3.731865932966483,910.1550246716865,909.1103466103493,0.13501245590725408,0.0,0.20263750868693653,0.19505305351957125,0.04754573319886989,1238.7029929527328,19686.34161637353
3.741870935467734,910.3104158060946,909.2496630965674,0.13554093056202912,0.0,0.20280076566854435,0.19488924874045543,0.04754486703629633,1238.588240230847,19698.371442402804
3.7518759379689843,910.4670619444458,909.3905925696605,0.1360702808371209,0.0,0.20296429236109215,0.19472517252267868,0.04754399814223823,1238.473296666427,19710.391448757375
3.761880940470235,910.6249390478495,909.5331044778611,0.13660050315588831,0.0,0.2031280876336007,0.19456082597959784,0.047543126488839495,1238.3581630176022,19722.401680901854
3.7718859429714855,910.7840233948084,909.6771684374243,0.13713159310196166,0.0,0.20329215009475915,0.1943962104850612,0.04754225204849668,1238.242840224223,19734.40218364
3.7818909454727363,910.9442915777289,909.8227542748025,0.13766354532528807,0.0,0.20345647806376946,0.19423132770256385,0.047541374793858934,1238.1273294281793,19746.39300112451
3.791895947973987,911.1057204949469,909.9698320607116,0.13819635343721143,0.0,0.20362106953778863,0.1940661796178053,0.04754049469782732,1238.011631996085,19758.374176866582
3.8019009504752375,911.2682873383283,910.1183721365393,0.13873000989329667,0.0,0.2037859221555668,0.1939007685750504,0.04753961173355387,1237.8957495446189,19770.34575374526
3.8119059529764883,911.4319695764357,910.2683451334669,0.13926450586255393,0.0,0.20395103315686525,0.1937350973177108,0.04753872587444024,1237.7796839688012,19782.30777401634
3.8219109554777386,911.5967449332433,910.4197219846483,0.1397998310815133,0.0,0.2041163993371731,0.19356916903362717,0.047537837094136254,1237.663437473548,19794.260279320926
3.8319159579789894,911.7625913623258,910.5724739307306,0.1403359736913988,0.0,0.20428201699717935,0.19340298740559628,0.047536945366538325,1237.5470126088794,19806.203310693338
3.8419209604802402,911.9294870163965,910.7265725189404,0.14087292005653212,0.0,0.20444788188642044,0.1932365566677224,0.04753605066578782,1237.430412309188,19818.136908568446
3.8519259629814906,912.0974102120098,910.8819895958835,0.141410654562048,0.0,0.20461398914050763,0.1930698816681888,0.047535152966269555,1237.3136399369785,19830.061112788248
3.8619309654827414,912.2663393892291,911.0386972941869,0.14194915938861294,0.0,0.20478033321121866,0.19290296793916537,0.04753425224261036,1237.196699331584,19841.975962607623
3.8719359679839918,912.4362530659879,911.1966680130403,0.14248841426169967,0.0,0.20494690778869384,0.19273582177461163,0.04753334846967798,1237.0795948633802,19853.881496699178
3.8819409704852426,912.607129786825,911.3558743926234,0.14302839617292812,0.0,0.20511370571496398,0.1925684503167484,0.047532441622580204,1236.9623314940434,19865.77775315696
3.891945972986493,912.778948065642,911.5162892823666,0.14356907907075514,0.0,0.20528071888796767,0.19240086165204046,0.04753153167666446,1236.844914843435,19877.664769499163
3.9019509754877437,912.9516863220801,911.6778857029528,0.14411043351744565,0.0,0.20544793815510484,0.19223306491764258,0.047530618607517915,1236.727351263777,19889.542582669415
3.9119559779889945,913.1253228110603,911.8406368018963,0.14465242630920255,0.0,0.20561535319535898,0.19206507041927803,0.04752970239096815,1236.6096479217993,19901.41122903675
3.921960980490245,913.2998355450181,912.0045158024902,0.14519502005650395,0.0,0.20578295238907127,0.19189688976146538,0.047528783003084545,1236.4918128894833,19913.27074439399
3.9319659829914957,913.4752022083203,912.1694959458982,0.1457381727212127,0.0,0.20595072267430112,0.19172853599115916,0.04752786042018049,1236.3738552441619,19925.12116395448
3.941970985492746,913.6514000633183,912.3355504261016,0.14628183710705756,0.0,0.20611864938871774,0.1915600237558603,0.04752693461881643,1236.2557851786987,19936.96252234694
3.951975987993997,913.828405847506,912.5026523174001,0.1468259603004129,0.0,0.2062867160960695,0.1913913694771495,0.04752600557580403,1236.1376141224164,19948.79485360829
3.9619809904952477,914.0061956612743,912.6707744941604,0.14737048305859105,0.0,0.20645490439636577,0.19122259154050844,0.047525073268211475,1236.0193548733737,19960.61819117434
3.971985992996498,914.1847448457476,912.8398895424881,0.1479153391426984,0.0,0.20662319371885732,0.19105371050234402,0.04752413767336993,1235.9010217426342,19972.432567868073
3.981990995497749,914.3640278502438,913.009969663516,0.1484604545928653,0.0,0.20679156109713465,0.1908847493148945,0.04752319876888164,1235.782630710994,19984.23801588532
3.991995997998999,914.5440180890848,913.1809865680716,0.14900574694504068,0.0,0.20695998092609386,0.19071573356927005,0.047522256532629314,1235.664199598348,19996.03456677775
4.00200100050025,914.7246877875488,913.3529113625418,0.1495511243889491,0.0,0.2071284247006449,0.1905466917567514,0.047521310942787456,1235.5457482457775,20007.82225143278
4.012006003001501,914.9060078169335,913.5257144258314,0.15009648486818317,0.0,0.20729686073646428,0.19037765554804567,0.0475203619778354,1235.4272987101563,20019.601100050386
4.022011005502751,915.0879475190211,913.6993652774878,0.1506417151257084,0.0,0.20746525387380865,0.19020866008948178,0.04751940961657241,1235.3088754705564,20031.37114211649
4.0320160080040015,915.2704745206395,913.8738324373143,0.15118668970090182,0.0,0.20763356516628947,0.1900397443142474,0.047518453838134946,1235.1905056451392,20043.132406372777
4.042021010505253,915.4535545392879,914.0490832769534,0.15173126988597951,0.0,0.20780175155704553,0.18987095126622833,0.04751749462201622,1235.0722192168287,20054.88492078278
4.052026013006503,915.6371511813694,914.2250838642664,0.1522753026537074,0.0,0.2079697655460043,0.18970232843276122,0.04751653194808827,1234.9540492651934,20066.628712494043
4.0620310155077535,915.8212257353604,914.4017988018285,0.15281861957353654,0.0,0.2081375548535515,0.1895339280809796,0.04751556579662657,1234.8360322008377,20078.363807796322
4.072036018009005,916.0057369628811,914.5791910612638,0.15336103573735757,0.0,0.20830506208718558,0.18936580759117688,0.04751459614833738,1234.7182079977094,20090.090232075734
4.082041020510255,916.1906408914037,914.7572218156398,0.15390234872121178,0.0,0.2084722244193289,0.1891980297790137,0.047513622984387854,1234.6006204176367,20101.808009764864
4.092046023011505,916.3758906134159,914.9358502728358,0.15444233761622636,0.0,0.20863897328662032,0.18903066319624678,0.04751264628643906,1234.4833172198967,20113.51716428895
4.102051025512757,916.561436098078,915.1150335136253,0.15498076216969023,0.0,0.2088052341233848,0.18886378239728172,0.04751166603668172,1234.3663503469681,20125.217718008407
4.112056028014007,916.747224022153,915.2947263387173,0.1555173620817,0.0,0.20897092614337692,0.18869746815745375,0.047510682217874856,1234.2497760766487,20136.909692157944
4.122061030515257,916.9331976281956,915.4748811298374,0.15605185651012046,0.0,0.20913596218616673,0.18853180762666832,0.047509694813387016,1234.1336551291208,20148.593106782828
4.132066033016508,917.1192966191862,915.6554477308059,0.15658394384348737,0.0,0.2093002486466693,0.1883668943998988,0.04750870380723987,1234.0180527160862,20160.267980672965
4.142071035517759,917.3054570994855,915.8363733551373,0.1571133018047963,0.0,0.20946368550735178,0.1882028284850085,0.047507709184154104,1233.9030385183462,20171.934331295637
4.152076038019009,917.4916115722951,916.0176025270257,0.1576395879499437,0.0,0.2096261664929039,0.1880397161481105,0.0475067109295968,1233.7886865780456,20183.59217472796
4.16208104052026,917.6776890041085,916.1990770629718,0.158162440624579,0.0,0.2097875793671581,0.18787766961667782,0.04750570902983012,1233.67507509179,20195.241525590238
4.172086043021511,917.8636149663251,916.3807361013883,0.15868148043875646,0.0,0.20994780639068839,0.18771680662197587,0.04750470347196045,1233.5622860917929,20206.882396981855
4.182091045522761,918.049311862586,916.5625161867016,0.1591963123061088,0.0,0.21010672495358615,0.18755724976631774,0.04750369424398728,1233.4504050049518,20218.514800421155
4.192096048024012,918.234699248562,916.7443514135946,0.1597065280797649,0.0,0.2102642083934129,0.1873991257051413,0.04750268133485091,1233.3395200828854,20230.138745791228
4.202101050525263,918.4196942482457,916.9261736356524,0.16021170979664828,0.0,0.21042012700194138,0.1872425641402972,0.047501664734478095,1233.2297217004088,20241.75424129332
4.212106053026513,918.6042120669639,917.1079127405194,0.16071143351418302,0.0,0.21057434921572887,0.18708769662950228,0.047500644433824485,1233.1211015259096,20253.361293410057
4.222111055527764,918.7881665967785,917.28949699094,0.16120527369195722,0.0,0.2107267429757994,0.18693465522668168,0.0474996204249128,1233.0137515738766,20264.959906880078
4.232116058029014,918.9714711052917,917.470853428296,0.16169280803868585,0.0,0.21087717723171645,0.1867835709779169,0.04749859270086582,1232.907763156812,20276.55008468584
4.242121060530265,919.154038993721,917.6519083320868,0.16217362271002136,0.0,0.21102552355453155,0.186634572308514,0.04749756125593302,1232.8032257612697,20288.13182805622
4.252126063031516,919.3357846051418,917.832587725465,0.16264731771159857,0.0,0.21117165781342348,0.18648778334637672,0.047496526085509944,1232.700225879514,20299.705136484852
4.262131065532766,919.5166240598606,918.0128179142116,0.16311351233796517,0.0,0.2113154618634779,0.1863433222342343,0.04749548718614981,1232.5988458334084,20311.270007765022
4.272136068034017,919.6964760918539,918.1925260442466,0.16357185046140768,0.0,0.21145682518689196,0.18620129948843867,0.047494444555566534,1232.4991626307644,20322.82643804111
4.282141070535268,919.8752628584932,918.3716406611178,0.16402200547827284,0.0,0.21159564642790069,0.1860618164640344,0.047493398192629065,1232.4012468957446,20334.374421876528
4.292146073036518,920.0529106963887,918.5500922545231,0.16446368473151,0.0,0.2117318347651722,0.18592496398235464,0.047492348097346905,1232.3051619125238,20345.913952336956
4.302151075537768,920.2293507982943,918.7278137715273,0.16489663324838194,0.0,0.2118653110716949,0.18579082117111903,0.04749129427084705,1232.210962817035,20357.445021087577
4.31215607803902,920.4045197893838,918.9047410834752,0.1653206366614377,0.0,0.21199600882122324,0.18565945455796848,0.04749023671534286,1232.1186959653196,20368.96761850239
4.32216108054027,920.5783601866735,919.0808133942277,0.16573552322433985,0.0,0.212123874713847,0.18553091744487127,0.04748917543409552,1232.0283984976056,20380.48173378339
4.33216608304152,920.7508207316249,919.255973580627,0.16614116488126637,0.0,0.21224886900787307,0.18540524957621307,0.04748811043136895,1231.9400981070337,20391.98735508701
4.3421710855427715,920.9218565920686,919.4301684594715,0.16653747739319044,0.0,0.21237096555904322,0.18528247709954698,0.04748704171237934,1231.853813012323,20403.484469655272
4.352176088044022,921.091429435464,919.6033489786241,0.1669244195662681,0.0,0.21249015158112214,0.1851626128049709,0.04748596928324018,1231.769552124596,20414.97306394899
4.362181090545272,921.2595073818268,919.7754703337348,0.1673019916704748,0.0,0.21260642715520553,0.18504565661578257,0.047484893150904074,1231.687315389299,20426.45312378055
4.3721860930465235,921.426064848765,919.9464920147727,0.16767023316260998,0.0,0.21271980452316022,0.18493159629500128,0.04748381332310244,1231.6070942785468,20437.924634443923
4.382191095547774,921.5910823039144,920.1163777885987,0.16802921984448715,0.0,0.21283030720578947,0.1848204083271638,0.04748272980828414,1231.5288724056024,20449.387580839986
4.392196098049024,921.7545459422898,920.2850956256315,0.16837906059823898,0.0,0.2129379689897658,0.18471205893135262,0.047481642615553835,1231.452626230801,20460.841947595516
4.402201100550275,921.916447306927,920.4526175797693,0.16871989384126013,0.0,0.21304283282755776,0.18460650516123056,0.047480551754611175,1231.3783258280978,20472.287719174496
4.412206103051526,922.0767828703441,920.6189196307753,0.16905188383272363,0.0,0.21314494969129175,0.18450369605114156,0.04747945723569132,1231.305935683718,20483.724879980975
4.422211105552776,922.2355535928507,920.7839814979146,0.16937521694903235,0.0,0.2132443774169683,0.18440357377185768,0.04747835906950742,1231.2354155015182,20495.153414452772
4.4322161080540265,922.3927644724237,920.9477864334806,0.1696900980310743,0.0,0.2133411795709549,0.1843060747640517,0.047477257267195434,1231.1667209928269,20506.573307145864
4.442221110555278,922.5484240982921,921.1103210037353,0.16999674688470526,0.0,0.2134354243640219,0.18421113082422788,0.04747615184026176,1231.099804633151,20517.984542809412
4.452226113056528,922.702544217847,921.2715748635819,0.17029539499573787,0.0,0.2135271836319393,0.184118670124094,0.04747504280053367,1231.0346163725012,20529.38710645174
4.4622311155577785,922.8551393243011,921.4315405302793,0.17058628250310265,0.0,0.21361653189618315,0.18402861814982532,0.047473930160112816,1230.9711042898873,20540.78098339753
4.47223611805903,923.0062262705551,921.5902131606401,0.17086965545759725,0.0,0.21370354551326207,0.18394089855271079,0.04747281393133179,1230.9092151860639,20552.16615933688
4.48224112056028,923.155823912585,921.7475903349278,0.1711457633783644,0.0,0.21378830191642995,0.18385543390741463,0.047471694126713704,1230.8488951118957,20563.542620366767
4.4922461230615305,923.3039527840282,921.9036718496975,0.17141485710801288,0.0,0.2138708789500706,0.18377214637756817,0.04747057075893469,1230.790089832145,20574.910353025567
4.502251125562781,923.4506348025762,922.0584595213122,0.17167718695869344,0.0,0.21395135429436835,0.183690958291077,0.047469443840789334,1230.7327452263446,20586.269344321274
4.512256128064032,923.5958930076575,922.2119570011505,0.17193300113424276,0.0,0.2140298049756462,0.18361179262976307,0.047468313385158716,1230.6768076299784,20597.619581754134
4.5222611305652824,923.7397513281073,922.3641696029218,0.17218254440907757,0.0,0.21410630695637659,0.18353457343933502,0.04746717940498114,1230.6222241201378,20608.9610533343
4.532266133066533,923.8822343780447,922.5151041421312,0.17242605704211458,0.0,0.21418093479812436,0.18345922616642826,0.0474660419132251,1230.5689427503637,20620.29374759512
4.542271135567784,924.0233672789262,922.6647687875922,0.17266377390212886,0.0,0.21425376139010288,0.1833856779300334,0.04746490092286472,1230.516912739764,20631.617653602512
4.552276138069034,924.1631755054826,922.8131729245508,0.17289592378077615,0.0,0.21432485773596507,0.18331385773469075,0.04746375644685706,1230.4660846215531,20642.93276096123
4.562281140570285,924.3016847532077,922.9603270288001,0.17312272887057611,0.0,0.21439429279178585,0.18324369663249493,0.04746260849812151,1230.4164103559224,20654.2390598181
4.572286143071536,924.4389208251421,923.1062425511813,0.1733444043859121,0.0,0.21446213334842504,0.18317512784071982,0.04746145708952098,1230.3678434119847,20665.536540862937
4.582291145572786,924.5749095357623,923.2509318118158,0.17356115830638602,0.0,0.21452844395186085,0.18310808682147453,0.04746030223384457,1230.320338823261,20676.82519532738
4.592296148074037,924.709676629907,923.3944079033296,0.17377319122401413,0.0,0.21459328685574694,0.183042511329136,0.04745914394379209,1230.2738532207154,20688.10501498206
4.602301150575287,924.843247714864,923.5366846023485,0.1739806962779183,0.0,0.21465672200112304,0.18297834143062977,0.047457982231959586,1230.2283448468681,20699.375992132223
4.612306153076538,924.9756482038899,923.6777762886386,0.17418385916110984,0.0,0.21471880701849744,0.1829155195033391,0.047456817110826534,1230.1837735543234,20710.63811961226
4.622311155577789,925.1069032696035,923.8176978712486,0.17438285818620533,0.0,0.21477959724821866,0.18285399021472587,0.047455648592743996,1230.1401007915506,20721.891390779216
4.632316158079039,925.2370378058854,923.9564647210243,0.17457786439898182,0.0,0.21483914577569355,0.18279370048710553,0.04745447668992392,1230.0972895783252,20733.135799505533
4.64232116058029,925.3660763970651,924.0940926089545,0.1747690417298412,0.0,0.2148975034783705,0.18273459945065812,0.04745330141442953,1230.0553044729684,20744.371340171117
4.652326163081541,925.4940432933138,924.2305976498485,0.17495654717441597,0.0,0.21495471908176703,0.18267663838739487,0.04745212277816651,1230.014111533291,20755.598007654957
4.662331165582791,925.6209623913068,924.3659962508708,0.17514053099619895,0.0,0.2150108392223327,0.18261977066829047,0.047450940792875235,1229.9736782727698,20766.815797326315
4.672336168084042,925.7468572193704,924.5003050644849,0.1753211369455408,0.0,0.21506590851539245,0.18256395168533512,0.047449755470123575,1229.9339736131901,20778.02470503569
4.682341170585293,925.871750926395,924.6335409454425,0.17549850248954976,0.0,0.21511996962647426,0.18250913878020303,0.047448566821300615,1229.8949678349256,20789.22472710549
4.692346173086543,925.9956662739045,924.7657209114599,0.17567275904862947,0.0,0.2151730633446977,0.18245529117085998,0.04744737485761097,1229.8566325257893,20800.415860320674
4.702351175587793,926.1186256307848,924.8968621072547,0.1758440322364442,0.0,0.2152252286572269,0.18240236987710762,0.047446179590069686,1229.8189405291398,20811.59810191919
4.712356178089045,926.2406509702372,925.0269817716581,0.1760124421005719,0.0,0.21527650282393804,0.18235033764591257,0.047444981029497846,1229.7818658918395,20822.77144958249
4.722361180590295,926.3617638685606,925.1560972075451,0.1761781033612562,0.0,0.21532692145149782,0.18229915887732587,0.04744377918651857,1229.7453838126244,20833.935901425994
4.732366183091545,926.4819855054482,925.2842257543437,0.17634112564654061,0.0,0.21537651856632006,0.18224879955152412,0.0474425740715536,1229.7094705912573,20845.09145598961
4.742371185592797,926.6013366655507,925.4113847629072,0.17650161372265016,0.0,0.21542532668604825,0.18219922715732495,0.04744136569482026,1229.6741035787097,20856.238112228308
4.752376188094047,926.7198377410681,925.5375915725604,0.17665966771832858,0.0,0.2154733768891631,0.18215041062257786,0.047440154066329045,1229.6392611286471,20867.375869502794
4.762381190595297,926.8375087351606,925.6628634901408,0.17681538334222283,0.0,0.2155206988824336,0.18210232024671194,0.04743893919588124,1229.604922550423,20878.50472757026
4.7723861930965485,926.954369266039,925.7872177708773,0.1769688520929053,0.0,0.21556732106608348,0.18205492763556808,0.0474377210930673,1229.571068063661,20889.62468657534
4.782391195597799,927.0704385716062,925.9106716009587,0.17712016146124454,0.0,0.21561327059658433,0.18200820563860495,0.04743649976726529,1229.5376787544942,20900.735747041053
4.792396198099049,927.1857355145156,926.033242081666,0.17726939512465237,0.0,0.21565857344692854,0.1819621282886255,0.04743527522763979,1229.5047365335604,20911.837909860013
4.8024012006003,927.3002785875535,926.1549462149372,0.17741663313313177,0.0,0.2157032544643578,0.1819166707440477,0.047434047483140965,1229.472224095771,20922.9311762857
4.812406203101551,927.4140859192892,926.2758008902667,0.17756195208731448,0.0,0.21574733742560695,0.18187180923366042,0.04743281654250403,1229.440124881811,20934.015547923955
4.822411205602801,927.5271752799126,926.3958228728321,0.17770542530842948,0.0,0.2157908450896441,0.1818275210038831,0.047431582414248906,1229.408423041386,20945.09102672453
4.832416208104052,927.6395640872032,926.5150287927565,0.17784712300027705,0.0,0.21583379924793025,0.18178378426850597,0.04743034510668008,1229.3771033981943,20956.15761497289
4.842421210605303,927.7512694125782,926.6334351354169,0.17798711240340087,0.0,0.21587622077225843,0.1817405781608511,0.04742910462788671,1229.3461514165933,20967.215315282116
4.852426213106553,927.8623087788095,926.7510581646496,0.17812546369555446,0.0,0.21591812965408358,0.18169788269445827,0.04742786277755469,1229.3155519256918,20978.26413058851
4.862431215607804,927.9727009279097,926.8679140138069,0.17826225481590716,0.0,0.2159595449926513,0.18165567877509864,0.04742662465636101,1229.28528807629,20989.30406417679
4.872436218109055,928.0824622384437,926.9840189857855,0.17839754552418138,0.0,0.21600048506720043,0.18161394812850454,0.04742539054330119,1229.2553469502714,21000.335119659485
4.882441220610305,928.1916086206849,927.0993892136212,0.1785313921433325,0.0,0.2160409674134329,0.1815726732238085,0.04742416039405756,1229.2257163725678,21011.357300949174
4.8924462231115555,928.3001556632347,927.2140406382068,0.17866384872424784,0.0,0.21608100886049925,0.1815318372365566,0.0474229341654506,1229.1963846593044,21022.37061225082
4.902451225612806,928.4081186392605,927.3279890039703,0.17879496715715362,0.0,0.2161206255655849,0.18149142401412366,0.04742171181542462,1229.1673405937076,21033.375058054433
4.912456228114057,928.5155125126614,927.4412498551465,0.17892479727718838,0.0,0.21615983304668607,0.1814514180429376,0.04742049330303337,1229.1385734032792,21044.370643127986
4.9224612306153075,928.6223519441764,927.5538385326089,0.17905338696456857,0.0,0.21619864621370832,0.18141180441738225,0.0474192785884255,1229.1100727381356,21055.357372510447
4.932466233116558,928.7286512974061,927.6657701712123,0.17918078223945724,0.0,0.2162370793979217,0.18137256881034314,0.04741806763282999,1229.0818286504962,21066.33525150491
4.942471235617809,928.8344246447417,927.7770596976002,0.17930702735179446,0.0,0.21627514637985248,0.1813336974453166,0.04741686039854168,1229.0538315752565,21077.30428567198
4.9524762381190595,928.9396857732108,927.8877218284547,0.17943216486643276,0.0,0.21631286041571837,0.181295177069976,0.04741565684890659,1229.0260723115825,21088.2644808232
4.96248124062031,929.0444481902397,927.9977710691563,0.1795562357438213,0.0,0.21635023426248262,0.18125699493111846,0.047414456948307475,1228.9985420054625,21099.215843014692
4.972486243121561,929.1487251293144,928.1072217128136,0.1796792794163963,0.0,0.2163872802015763,0.18121913875094417,0.04741326066214914,1228.9712321331904,21110.15837854089
4.982491245622811,929.2525295555437,928.216087839632,0.17980133386091346,0.0,0.21642401006136022,0.18118159670459513,0.04741206795684404,1228.9441344857248,21121.09209392842
4.992496248124062,929.3558741711407,928.3243833166141,0.17992243566705135,0.0,0.2164604352384314,0.1811443573988506,0.04741087879979783,1228.9172411538561,21132.016995930164
5.002501250625312,929.4587714208033,928.4321217975493,0.18004262010236638,0.0,0.21649656671779638,0.18110740985195453,0.04740969315939492,1228.890544514162,21142.933091519368
5.012506253126563,929.5612334969989,928.5393167232711,0.18016192117384547,0.0,0.2165324150919891,0.18107074347449942,0.04740851100498421,1228.864037215697,21153.840387883964
5.022511255627814,929.663272345153,928.6459813221651,0.18028037168621075,0.0,0.21656799057918089,0.18103434805131732,0.04740733230686489,1228.8377121673873,21164.73889242096
5.032516258129064,929.7648996687549,928.7521286109117,0.18039800329725575,0.0,0.21660330304036934,0.1809982137242925,0.04740615703627228,1228.8115625260657,21175.628612730983
5.042521260630315,929.8661269343658,928.8577713954373,0.18051484657025954,0.0,0.21663836199566056,0.18096233097608058,0.047404985165363844,1228.7855816851377,21186.509556612957
5.052526263131566,929.9669653765282,928.962922272052,0.18063093102366057,0.0,0.21667317663970057,0.18092669061467845,0.04740381666720528,1228.7597632638433,21197.381732058828
5.062531265632816,930.0674260025963,929.0675936287703,0.1807462851782176,0.0,0.2167077558563275,0.18089128375877347,0.04740265151575675,1228.7341010970574,21208.245147248534
5.072536268134067,930.1675195974753,929.1717976467967,0.1808609366017358,0.0,0.21674210823246745,0.1808561018238491,0.047401489685859236,1228.7085892256223,21219.099810544954
5.082541270635318,930.2672567282705,929.2755463021504,0.18097491195149562,0.0,0.21677624207131815,0.18082113650900244,0.04740033115322101,1228.6832218871725,21229.945730489064
5.092546273136568,930.3666477488448,929.3788513674236,0.18108823701449653,0.0,0.2168101654048537,0.1807863797844412,0.04739917589440433,1228.6579935074337,21240.782915795153
5.102551275637818,930.4657028043033,929.4817244136698,0.1812009367457171,0.0,0.21684388600571433,0.18075182387959507,0.047398023886812156,1228.63289869195,21251.611375346183
5.11255627813907,930.5644318353876,929.5841768123955,0.18131303530440906,0.0,0.21687741139848543,0.18071746127183838,0.04739687510867509,1228.6079322182395,21262.431118189223
5.12256128064032,930.6628445827841,929.6862197376495,0.18142455608856925,0.0,0.21691074887041123,0.18068328467577752,0.047395729539038506,1228.5830890283376,21273.242153531002
5.13256628314157,930.7609505913547,929.7878641682006,0.18153552176769389,0.0,0.21694390548157538,0.1806492870330719,0.0473945871577498,1228.5583642217193,21284.044490733562
5.142571285642822,930.8587592142904,929.8891208898021,0.18164595431392516,0.0,0.21697688807458246,0.18061546150275415,0.04739344794544573,1228.5337530485626,21294.83813931002
5.152576288144072,930.9562796171829,929.9900004975199,0.18175587503163973,0.0,0.21700970328375568,0.18058180145203329,0.04739231188354009,1228.5092509033518,21305.62310892041
5.162581290645322,931.0535207820133,930.0905133981172,0.181865304585571,0.0,0.21704235754387965,0.1805483004475537,0.0473911789542114,1228.4848533187985,21316.39940936762
5.172586293146573,931.1504915110763,930.1906698125066,0.18197426302759612,0.0,0.21707485709852833,0.18051495224706854,0.04739004914039089,1228.4605559600502,21327.16705059346
5.182591295647824,931.2472004308228,930.2904797782436,0.18208276982220026,0.0,0.21710720800798275,0.18048175079152315,0.04738892242575049,1228.4363546191842,21337.92604267475
5.192596298149074,931.3436559956256,930.3899531520552,0.18219084387069356,0.0,0.2171394161567611,0.18044869019752668,0.047387798794691204,1228.412245209973,21348.676395819588
5.202601300650325,931.4398664914768,930.4890996124091,0.1822985035342956,0.0,0.21717148726079732,0.18041576475017457,0.047386678232331524,1228.3882237628936,21359.418120363604
5.212606303151576,931.5358400396157,930.5879286621116,0.18240576665611014,0.0,0.2172034268742754,0.1803829688962159,0.04738556072449602,1228.3642864203764,21370.151226766415
5.222611305652826,931.6315846000828,930.6864496309285,0.18251265058204522,0.0,0.21723524039613565,0.18035029723754806,0.0473844462577042,1228.3404294322834,21380.875725608053
5.232616308154077,931.7271079752016,930.7846716782169,0.18261917218075283,0.0,0.21726693307627704,0.18031774452501592,0.04738333481915945,1228.3166491515965,21391.591627585552
5.242621310655328,931.8224178130002,930.8826037955807,0.18272534786263236,0.0,0.2172985100214687,0.18028530565250186,0.04738222639673819,1228.2929420303096,21402.298943509577
5.252626313156578,931.9175216105612,930.9802548095329,0.18283119359796574,0.0,0.21732997620099134,0.1802529756512851,0.04738112097897924,1228.2693046155096,21412.997684301154
5.262631315657829,932.0124267173053,931.0776333841583,0.1829367249341727,0.0,0.21736133645200628,0.18022074968467455,0.04738001855507333,1228.2457335456438,21423.687860988466
5.272636318159079,932.1071403382098,931.1747480237799,0.1830419570123099,0.0,0.21739259548468876,0.18018862304287656,0.0473789191148528,1228.222225546956,21434.36948470371
5.28264132066033,932.201669536968,931.2716070756286,0.18314690458280072,0.0,0.21742375788712273,0.18015659113810095,0.04737782264878145,1228.1987774300826,21445.042566680073
5.292646323161581,932.2960212390808,931.3682187325034,0.18325158202044567,0.0,0.2174548281299722,0.18012464949989154,0.0473767291479446,1228.175386086812,21455.707118248723
5.302651325662831,932.3902022348867,931.4645910354204,0.18335600333874807,0.0,0.21748581057093963,0.18009279377066847,0.04737563860403935,1228.1520484869852,21466.363150835914
5.312656328164082,932.4842191825352,931.5607318762595,0.18346018220362248,0.0,0.2175167094590331,0.1800610197014626,0.04737455100936495,1228.128761675532,21477.010675960144
5.3226613306653325,932.5780786108969,931.6566490003931,0.18356413194645932,0.0,0.2175475289386328,0.18002932314784997,0.04737346635681338,1228.1055227696493,21487.649705229385
5.332666333166583,932.6717869224163,931.7523500092998,0.1836678655766242,0.0,0.21757827305338243,0.17999770006606164,0.047372384639860106,1228.0823289560976,21498.280250338372
5.342671335667834,932.7653503959041,931.8478423631593,0.18377139579340104,0.0,0.21760894574990747,0.1799661465092665,0.047371305852555015,1228.0591774886193,21508.902323065955
5.3526763381690845,932.858775189279,931.943133383434,0.18387473499742882,0.0,0.21763955088137624,0.17993465862401145,0.04737022998951352,1228.0360656854682,21519.515935272546
5.362681340670335,932.9520673422478,932.0382302554237,0.1839778953016055,0.0,0.21767009221089548,0.17990323264682692,0.04736915704590777,1228.0129909270509,21530.121098897558
5.372686343171585,933.045232778933,932.1331400308007,0.18408088854155402,0.0,0.21770057341476956,0.17987186490096863,0.04736808701745815,1227.9899506536647,21540.71782595701
5.3826913456728365,933.1382773104444,932.2278696301169,0.18418372628560642,0.0,0.2177309980856102,0.1798405517933091,0.047367019900424794,1227.9669423633406,21551.306128541088
5.392696348174087,933.231206637402,932.3224258452931,0.18428641984439073,0.0,0.21776136973532265,0.17980928981135244,0.047365955691599466,1227.9439636097716,21561.886018811805
5.402701350675337,933.3240263524032,932.416815342076,0.18438898027998304,0.0,0.21779169179795663,0.1797780755203844,0.04736489438829735,1227.9210120003313,21572.45750900075
5.412706353176588,933.4167419424376,932.5110446624669,0.184491418414688,0.0,0.2178219676324419,0.17974690556073813,0.047363835988349236,1227.89808519418,21583.020611406846
5.422711355677839,933.5093587912568,932.6051202271271,0.18459374483944788,0.0,0.21785220052520823,0.1797157766451747,0.04736278049009371,1227.8751809004461,21593.575338394174
5.432716358179089,933.6018821816898,932.6990483377508,0.18469596992189447,0.0,0.21788239369269458,0.17968468555637548,0.04736172789236959,1227.852296876483,21604.121702389864
5.44272136068034,933.6943172979119,932.7928351794073,0.18479810381406925,0.0,0.21791255028375459,0.179653629144537,0.04736067819450842,1227.8294309262053,21614.659715882022
5.452726363181591,933.7866692276639,932.8864868228529,0.18490015645982372,0.0,0.21794267338196352,0.17962260432506572,0.04735963139632724,1227.8065808984854,21625.189391417724
5.462731365682841,933.8789429644285,932.9800092268144,0.18500213760191997,0.0,0.21797276600783103,0.17959160807636557,0.04735858749812145,1227.7837446856213,21635.710741601044
5.4727363681840915,933.9711434095574,933.0734082402383,0.18510405678883363,0.0,0.21800283112092192,0.17956063743771827,0.04735754650065773,1227.7609202218644,21646.223779091135
5.482741370685343,934.0632753743528,933.1666896045062,0.1852059233812904,0.0,0.21803287162189403,0.17952968950724657,0.04735650840516727,1227.738105482009,21656.72851660036
5.492746373186593,934.1553435821063,933.2598589556217,0.18530774655852172,0.0,0.21806289035444865,0.1794987614399645,0.0473554732133391,1227.7152984800382,21667.224966892474
5.5027513756878434,934.2473526700957,933.3529218263633,0.18540953532429963,0.0,0.21809289010721203,0.17946785044589664,0.04735444092731338,1227.6924972678216,21677.713142780834
5.512756378189095,934.3393071915334,933.4458836484022,0.18551129851268755,0.0,0.2181228736155292,0.17943695378828564,0.047353411549675165,1227.6696999338715,21688.19305712668
5.522761380690345,934.4312116174777,933.5387497543878,0.185613044793601,0.0,0.21815284356319775,0.17940606878185872,0.04735238508344799,1227.6469046021393,21698.66472283742
5.532766383191595,934.5230703387033,933.6315253800034,0.18571478267813846,0.0,0.21818280258413084,0.1793751927911658,0.04735136153208778,1227.6241094308687,21709.12815286502
5.542771385692847,934.6148876675289,933.7242156659848,0.18581652052369144,0.0,0.2182127532639511,0.17934432322898616,0.047350340899476796,1227.6013126114856,21719.583360204353
5.552776388194097,934.7066678396027,933.8168256601051,0.18591826653885576,0.0,0.21824269814152286,0.17931345755479733,0.04734932318991784,1227.5785123675403,21730.03035789165
5.562781390695347,934.7984150156567,933.909360319129,0.1860200287881776,0.0,0.21827263971043281,0.17928259327329504,0.047348308408128405,1227.5557069536808,21740.469159002976
5.572786393196598,934.8901332832158,934.0018245107336,0.18612181519668622,0.0,0.21830258042040443,0.1792517279329794,0.0473472965592351,1227.532894654673,21750.899776652746
5.582791395697849,934.9818266582743,934.094223015395,0.18622363355427232,0.0,0.21833252267866424,0.1792208591247896,0.04734628764876814,1227.5100737844552,21761.32222399225
5.592796398199099,935.0734990869281,934.1865605282393,0.1863254915198758,0.0,0.2183624688512487,0.1791899844807977,0.04734528168265595,1227.4872426852335,21771.73651420825
5.60280140070035,935.1651544469829,934.2788416608672,0.18642739662555582,0.0,0.21839242126427458,0.1791591016729388,0.047344278667219956,1227.4643997266005,21782.1426605216
5.612806403201601,935.2567965495166,934.3710709431421,0.18652935628036493,0.0,0.2184223822051483,0.1791282084118028,0.0473432786091694,1227.4415433047004,21792.54067618591
5.622811405702851,935.3484291404117,934.4632528249431,0.18663137777410058,0.0,0.21845235392373702,0.1790973024454634,0.047342281515596316,1227.418671841417,21802.930574486207
5.632816408204102,935.440055901851,934.5553916778908,0.18673346828090265,0.0,0.2184823386334918,0.17906638155835622,0.04734128739397069,1227.3957837835967,21813.31236873768
5.642821410705353,935.5316804537867,934.6474917970402,0.1868356348627469,0.0,0.21851233851253826,0.17903544357018825,0.04734029625213557,1227.3728776022936,21823.686072284443
5.652826413206603,935.6233063553689,934.73955740254,0.18693788447277074,0.0,0.2185423557047154,0.17900448633490015,0.04733930809830244,1227.3499517920507,21834.051698498293
5.662831415707854,935.7149371063446,934.8315926412598,0.1870402239584972,0.0,0.21857239232058212,0.17897350773965998,0.04733832294104662,1227.3270048702043,21844.40926077755
5.672836418209104,935.8065761484296,934.9236015883909,0.18714266006495053,0.0,0.2186024504383904,0.17894250570389092,0.047337340789302816,1227.3040353762094,21854.758772545887
5.682841420710355,935.8982268666458,935.0155882490131,0.18724519943764076,0.0,0.21863253210501749,0.17891147817833927,0.04733636165236073,1227.2810418709955,21865.10024725123
5.692846423211606,935.9898925906273,935.1075565596301,0.1873478486254417,0.0,0.218662639336865,0.17888042314417654,0.04733538553986079,1227.2580229363452,21875.433698364646
5.702851425712856,936.0815765959004,935.1995103896766,0.18745061408337665,0.0,0.21869277412072904,0.17884933861212932,0.04733441246179001,1227.2349771742913,21885.75913937927
5.712856428214107,936.1732821051339,935.2914535429976,0.1875535021753026,0.0,0.21872293841463902,0.17881822262164143,0.047333442428477916,1227.2119032065377,21896.076583809307
5.722861430715358,936.265012289361,935.3833897592954,0.18765651917649376,0.0,0.21875313414866474,0.1787870732400671,0.04733247545059254,1227.1887996739013,21906.38604518896
5.732866433216608,936.3567702691718,935.4753227155475,0.1877596712761278,0.0,0.2187833632256933,0.1787558885618947,0.04733151153913661,1227.1656652357735,21916.68753707149
5.742871435717859,936.4485591158816,935.5672560273991,0.1878629645797081,0.0,0.21881362752218625,0.17872466670799023,0.04733055070544368,1227.1424985695985,21926.981073028248
5.7528764382191095,936.5403818526732,935.6591932505264,0.18796640511138007,0.0,0.21884392888890325,0.17869340582487397,0.047329592961174505,1227.1192983703725,21937.26666664773
5.76288144072036,936.6322414557083,935.7511378819698,0.18806999881616718,0.0,0.21887426915160124,0.17866210408402186,0.04732863831831341,1227.0960633501597,21947.544331534664
5.77288644322161,936.72414085522,935.8430933614433,0.18817375156215227,0.0,0.21890465011171614,0.17863075968118447,0.04732768678916475,1227.0727922376213,21957.81408130914
5.7828914457228615,936.8160829365745,935.9350630726133,0.1882776691425451,0.0,0.21893507354700917,0.17859937083574087,0.04732673838634952,1227.0494837775707,21968.075929605726
5.792896448224112,936.9080705413149,936.0270503443562,0.18838175727772433,0.0,0.2189655412122053,0.17856793579006064,0.04732579312280198,1227.026136730529,21978.329890072655
5.802901450725362,937.0001064681753,936.1190584519846,0.1884860216171744,0.0,0.2189960548395989,0.17853645280889915,0.04732485101176635,1227.0027498723093,21988.575976370965
5.8129064532266135,937.0921934740752,936.211090618451,0.18859046774138258,0.0,0.21902661613964677,0.17850492017880437,0.04732391206679371,1226.979321993606,21998.814202173737
5.822911455727864,937.1843342750908,936.3031500155256,0.18869510116365307,0.0,0.21905722680153544,0.1784733362075503,0.047322976301738776,1226.9558518996025,22009.0445811653
5.832916458229114,937.2765315474023,936.3952397649496,0.18879992733186873,0.0,0.21908788849373223,0.17844169922358624,0.04732204373075695,1226.932338409591,22019.26712704049
5.8429214607303654,937.3687879282213,936.4873629395626,0.18890495163019566,0.0,0.21911860286451823,0.1784100075755043,0.047321114368301345,1226.9087803566042,22029.481853503883
5.852926463231616,937.4611060166965,936.5795225644089,0.18901017938073583,0.0,0.21914937154250524,0.1783782596315228,0.047320188229119854,1226.8851765870586,22039.68877426913
5.862931465732866,937.5534883747989,936.6717216178181,0.1891156158451155,0.0,0.21918019613713263,0.17834645377898986,0.04731926532825238,1226.86152596041,22049.887903058192
5.8729364682341165,937.6459375281853,936.7639630324632,0.18922126622602858,0.0,0.21921107823915006,0.1783145884239009,0.047318345681028086,1226.8378273488224,22060.079253600732
5.882941470735368,937.7384559670429,936.8562496963954,0.18932713566872453,0.0,0.21924201942108298,0.17828266199043366,0.04731742930306267,1226.8140796368446,22070.262839633393
5.892946473236618,937.8310461469143,936.9485844540582,0.18943322926245404,0.0,0.21927302123768488,0.1782506729204963,0.04731651621025584,1226.7902817210986,22080.4386748992
5.9029514757378685,937.9237104895054,937.040970107279,0.1895395520418738,0.0,0.2193040852263768,0.1782186196732881,0.04731560641878867,1226.766432509976,22090.606773146897
5.91295647823912,938.0164513834723,937.1334094162389,0.1896461089884052,0.0,0.21933521290767244,0.17818650072487485,0.047314699945121184,1226.742530923345,22100.767148130373
5.92296148074037,938.1092711851878,937.2259051004198,0.18975290503151857,0.0,0.21936640578558003,0.17815431456778727,0.04731379680598996,1226.7185758922726,22110.91981360804
5.9329664832416205,938.2021722194982,937.3184598395358,0.18985994505003345,0.0,0.21939766534800909,0.17812205971061443,0.047312897018405686,1226.6945663587428,22121.06478334227
5.942971485742872,938.2951567804539,937.411076274438,0.18996723387333536,0.0,0.21942899306715138,0.17808973467762343,0.047312000599650926,1226.6705012753957,22131.202071098833
5.952976488244122,938.3882271320286,937.5037570080053,0.19007477628257494,0.0,0.21946039039985596,0.17805733800838427,0.04731110756727789,1226.6463796052674,22141.33169064635
5.962981490745372,938.4813855088199,937.5965046060115,0.1901825770118181,0.0,0.2194918587879892,0.17802486825741035,0.047310217939106204,1226.6222003215407,22151.453655755755
5.972986493246623,938.5746341167346,937.6893215979759,0.1902906407491722,0.0,0.21952339965878737,0.17799232399380618,0.047309331733220834,1226.5979624073034,22161.567980199783
5.982991495747874,938.6679751336576,937.7822104779933,0.19039897213788337,0.0,0.21955501442519973,0.17795970380092443,0.04730844896796996,1226.5736648553104,22171.67467775248
5.992996498249124,938.7614107101041,937.875173705547,0.19050757577736935,0.0,0.21958670448621231,0.17792700627604263,0.04730756966196303,1226.5493066677607,22181.773762188684
6.003001500750375,938.8549429698608,937.9682137063044,0.19061645622426526,0.0,0.21961847122717473,0.17789423003003635,0.047306693834068714,1226.5248868560718,22191.865247283586
6.013006503251626,938.9485740106088,938.061332872893,0.19072561799341115,0.0,0.2196503160201096,0.17786137368707033,0.04730582150341306,1226.5004044406658,22201.949146812236
6.023011505752876,939.042305904532,938.1545335656604,0.1908350655588113,0.0,0.2196822402240127,0.1778284358842983,0.04730495268937758,1226.4758584507626,22212.025474549107
6.033016508254127,939.1361406989149,938.2478181134182,0.19094480335458572,0.0,0.2197142451851509,0.17779541527156553,0.04730408741159747,1226.4512479241737,22222.094244267664
6.043021510755377,939.2300804167223,938.3411888141682,0.19105483577586324,0.0,0.21974633223734155,0.1777623105111295,0.0473032256899598,1226.4265719071107,22232.155469739933
6.053026513256628,939.3241270571705,938.4346479358122,0.19116516717968304,0.0,0.21977850270223484,0.17772912027737783,0.047302367544601834,1226.4018294539892,22242.209164736083
6.063031515757879,939.4182825962799,938.5281977168478,0.191275801885847,0.0,0.21981075788958054,0.17769584325656174,0.04730151299590929,1226.3770196272455,22252.255343024015
6.073036518259129,939.5125489874199,938.6218403670465,0.19138674417775267,0.0,0.21984309909748884,0.1776624781465355,0.0473006620645148,1226.3521414971563,22262.294018369008
6.08304152076038,939.60692816184,938.7155780681194,0.19149799830322176,0.0,0.21987552761268947,0.1776290236564975,0.047299814771296224,1226.3271941416592,22272.32520453331
6.093046523261631,939.7014220291849,938.8094129743641,0.1916095684752675,0.0,0.2199080447107722,0.1775954785067497,0.04729897113737516,1226.302176646188,22282.34891527576
6.103051525762881,939.7960324780041,938.9033472133013,0.19172145887288383,0.0,0.21994065165643373,0.17756184142845144,0.04729813118411542,1226.2770881035017,22292.365164351475
6.113056528264132,939.890761376246,938.997382886295,0.19183367364178922,0.0,0.2199733497037105,0.1775281111633863,0.04729729493312154,1226.2519276135233,22302.373965511448
6.123061530765383,939.9856105717405,939.0915220691585,0.19194621689514724,0.0,0.22000614009620434,0.17749428646373688,0.04729646240623738,1226.2266942831857,22312.37533250224
6.133066533266633,940.0805818926738,939.1857668127492,0.19205909271429514,0.0,0.22003902406731052,0.17746036609185706,0.04729563362554473,1226.2013872262721,22322.369279065657
6.143071535767883,940.1756771480484,939.2801191435469,0.19217230514941971,0.0,0.2200720028404292,0.1774263488200604,0.04729480861336194,1226.1760055632717,22332.355818938417
6.153076538269135,940.2708981281368,939.3745810642231,0.19228585822023975,0.0,0.22010507762917922,0.17739223343040667,0.04729398739224259,1226.1505484212323,22342.334965851835
6.163081540770385,940.3662466049208,939.4691545541925,0.19239975591665787,0.0,0.220138249637602,0.17735801871449827,0.04729316998497426,1226.1250149336186,22352.306733531554
6.173086543271635,940.4617243325235,939.5638415701569,0.19251400219940365,0.0,0.2201715200603629,0.17732370347327864,0.04729235641457722,1226.0994042401726,22362.271135697203
6.1830915457728866,940.5573330476332,939.6586440466358,0.19262860100066537,0.0,0.22020489008294877,0.17728928651683518,0.047291546704303244,1226.073715486779,22372.22818606217
6.193096548274137,940.6530744699118,939.7535638964828,0.19274355622468425,0.0,0.22023836088185442,0.17725476666421297,0.047290740877634435,1226.0479478253365,22382.177898333277
6.203101550775387,940.7489503024022,939.8486030113934,0.19285887174836983,0.0,0.22027193362477454,0.17722014274322254,0.047289938958282075,1226.0221004136229,22392.120286210557
6.2131065532766385,940.8449622319202,939.9437632624014,0.19297455142187053,0.0,0.22030560947078276,0.17718541359026155,0.04728914097018544,1225.9961724151747,22402.055363386957
6.223111555777889,940.9411119294392,940.0390465003603,0.19309059906913306,0.0,0.22033938957050653,0.17715057805013945,0.04728834693751082,1225.970162999163,22411.98314354813
6.233116558279139,941.0374010504689,940.1344545564206,0.19320701848847255,0.0,0.2203732750663055,0.1771156349758997,0.04728755688465039,1225.9440713402741,22421.90364037213
6.24312156078039,941.1338312354229,940.2299892424899,0.19332381345310673,0.0,0.2204072670924387,0.17708058322865236,0.047286770836221154,1225.917896618591,22431.816867529247
6.253126563281641,941.2304041099782,940.3256523516876,0.19344098771168203,0.0,0.22044136677522913,0.17704542167740983,0.047285988817064,1225.8916380194803,22441.722838681726
6.263131565782891,941.3271212854304,940.4214456587882,0.1935585449888028,0.0,0.22047557523322944,0.17701014919892127,0.04728521085224273,1225.8652947334795,22451.621567483577
6.273136568284142,941.423984359036,940.517370920653,0.19367648898552897,0.0,0.22050989357737744,0.17697476467751688,0.04728443696704303,1225.8388659561874,22461.513067580338
6.283141570785393,941.5209949143506,940.6134298766548,0.19379482337987292,0.0,0.22054432291115164,0.17693926700495294,0.047283667186971606,1225.8123508881586,22471.39735260889
6.293146573286643,941.6181545215594,940.7096242490923,0.1939135518272892,0.0,0.22057886433072446,0.17690365508025838,0.047282901537755315,1225.785748734796,22481.274436197218
6.3031515757878935,941.7154647377988,940.8059557435943,0.19403267796114587,0.0,0.22061351892510947,0.17686792780958757,0.04728214004534018,1225.7590587062496,22491.14433196427
6.313156578289145,941.8129271074746,940.902426049518,0.194152205393196,0.0,0.22064828777630913,0.17683208410607304,0.047281382735890665,1225.7322800173156,22501.007053519726
6.323161580790395,941.9105431625685,940.9990368403356,0.19427213771402804,0.0,0.22068317195945544,0.17679612288968435,0.04728062963578875,1225.7054118873377,22510.862614463833
6.3331665832916455,942.0083144229427,941.0957897740135,0.19439247849351696,0.0,0.2207181725429511,0.17676004308708776,0.0472798807716332,1225.6784535401098,22520.71102838721
6.343171585792896,942.1062423966349,941.1926864933839,0.19451323128125952,0.0,0.22075329058860535,0.17672384363150945,0.04727913617023868,1225.6514042037832,22530.552308870716
6.353176588294147,942.2043285801487,941.2897286265079,0.19463439960700946,0.0,0.22078852715177053,0.17668752346260014,0.047278395858635115,1225.6242631107712,22540.38646948524
6.3631815907953975,942.3025744587383,941.3869177870312,0.19475598698110133,0.0,0.22082388328147406,0.17665108152630224,0.04727765986406687,1225.5970294976566,22550.213523791586
6.373186593296648,942.4009815066845,941.4842555745306,0.1948779968948586,0.0,0.2208593600205463,0.17661451677472265,0.04727692821399204,1225.5697026051073,22560.03348534026
6.383191595797899,942.4995511875676,941.5817435748552,0.19500043282099877,0.0,0.22089495840574705,0.17657782816600603,0.047276200936081765,1225.5422816777843,22569.846367671402
6.393196598299149,942.5982849545351,941.6793833604593,0.1951232982140496,0.0,0.2209306794678958,0.17654101466420474,0.04727547805821951,1225.5147659642548,22579.652184314557
6.4032016008004,942.6971842505599,941.7771764907274,0.1952465965107184,0.0,0.22096652423198676,0.17650407523916364,0.04727475960850042,1225.487154716911,22589.450948788595
6.413206603301651,942.796250508701,941.8751245122947,0.1953703311303097,0.0,0.22100249371731978,0.1764670088663896,0.04727404561523073,1225.4594471918797,22599.24267460156
6.423211605802901,942.8954851523475,941.9732289593583,0.19549450547507188,0.0,0.22103858893760836,0.17642981452694315,0.047273336106927,1225.4316426489486,22609.027375250535
6.433216608304152,942.9948895954698,942.0714913539827,0.19561912293059608,0.0,0.22107481090110434,0.176392491207314,0.047272631112315645,1225.4037403514787,22618.805064221528
6.443221610805402,943.0944652428558,942.1699132063995,0.19574418686616746,0.0,0.22111116061070765,0.1763550378993113,0.04727193066033224,1225.3757395663295,22628.57575498934
6.453226613306653,943.1942134903491,942.2684960153005,0.19586970063513937,0.0,0.22114763906408313,0.17631745359994697,0.04727123478012096,1225.3476395637765,22638.33946101747
6.463231615807904,943.2941357250791,942.3672412681244,0.19599566757528,0.0,0.22118424725376876,0.17627973731132715,0.04727054350103407,1225.3194396174388,22648.096195757975
6.473236618309154,943.3942333256886,942.4661504413383,0.19612209100913391,0.0,0.22122098616728866,0.17624188804053975,0.04726985685263128,1225.2911390041984,22657.84597265141
6.483241620810405,943.4945076625539,942.5652250007123,0.19624897424435978,0.0,0.22125785678725823,0.17620390479954878,0.047269174864679284,1225.262737004129,22667.588805126656
6.493246623311656,943.5949600980042,942.6644664015896,0.196376320574074,0.0,0.2212948600914918,0.17616578660508708,0.04726849756715119,1225.23423290042,22677.324706600895
6.503251625812906,943.6955919865347,942.7638760891509,0.1965041332771875,0.0,0.22133199705310744,0.17612753247855145,0.04726782499022604,1225.2056259793058,22687.053690479475
6.513256628314157,943.7964046750152,942.8634554986725,0.19663241561873318,0.0,0.22136926864062936,0.17608914144590024,0.047267157164288295,1225.1769155299935,22696.77577015583
6.523261630815408,943.8973995028974,942.96320605578,0.19676117085020095,0.0,0.22140667581809226,0.17605061253754886,0.047266494119927366,1225.1481008445903,22706.49095901138
6.533266633316658,943.9985778024151,943.0631291766974,0.1968904022098534,0.0,0.22144421954514001,0.17601194478827142,0.04726583588793712,1225.1191812180366,22716.199270415465
6.543271635817908,944.0999408987808,943.16322626849,0.19702011292303695,0.0,0.22148190077712263,0.1759731372371035,0.04726518249931544,1225.0901559480371,22725.900717725286
6.55327663831916,944.201490110385,943.2634987293045,0.19715030620252474,0.0,0.2215197204652031,0.17593418892723534,0.04726453398526377,1225.0610243349886,22735.59531428578
6.56328164082041,944.3032267489801,943.3639479486008,0.19728098524879145,0.0,0.2215576795564434,0.17589509890592603,0.04726389037718667,1225.0317856819177,22745.283073429575
6.57328664332166,944.4051521198729,943.4645753073833,0.19741215325033987,0.0,0.22159577899390603,0.17585586622440175,0.047263251706691385,1225.0024392944133,22754.964008476938
6.583291645822912,944.5072675221048,943.5653821784256,0.1975438133840026,0.0,0.22163401971674826,0.17581648993776153,0.04726261800558746,1224.9729844805597,22764.638132735672
6.593296648324162,944.609574248635,943.6663699264906,0.19767596881523564,0.0,0.22167240266031366,0.1757769691048859,0.047261989305886286,1224.9434205508733,22774.305459501084
6.603301650825412,944.7120735865146,943.767539908547,0.1978086226984097,0.0,0.22171092875622272,0.175737302788346,0.047261365639800754,1224.913746818239,22783.96600205593
6.613306653326664,944.8147668170653,943.8688934739832,0.19794177817712577,0.0,0.22174959893247145,0.17569749005430507,0.04726074703974478,1224.8839625978435,22793.61977367032
6.623311655827914,944.9176552160454,943.9704319648131,0.19807543838447117,0.0,0.22178841411351108,0.1756575299724389,0.04726013353833306,1224.8540672071188,22803.26678760173
6.633316658329164,945.0207400538216,944.0721567158823,0.19820960644333316,0.0,0.2218273752203457,0.1756174216158379,0.047259525168380535,1224.8240599656747,22812.90705709487
6.643321660830415,945.1240225955332,944.174069055069,0.19834428546667107,0.0,0.2218664831706172,0.1755771640609222,0.047258921962902205,1224.7939401952385,22822.540595381717
6.653326663331666,945.2275041012531,944.2761703034787,0.1984794785577844,0.0,0.22190573887868867,0.17553675638735838,0.04725832395511258,1224.7637072196005,22832.167415681433
6.663331665832916,945.3311858261507,944.3784617756401,0.19861518881061757,0.0,0.2219451432557394,0.17549619767796418,0.04725773117842552,1224.7333603645445,22841.787531200313
6.673336668334167,945.4350690206456,944.480944779693,0.19875141931000762,0.0,0.221984697209842,0.17545548701863173,0.04725714366645374,1224.7028989577957,22851.400955131787
6.683341670835418,945.5391549305633,944.5836206175755,0.19888817313196325,0.0,0.22202440164604928,0.1754146234982401,0.04725656145300859,1224.672322328961,22861.00770065634
6.693346673336668,945.6434447972885,944.6864905852068,0.19902545334394062,0.0,0.2220642574664802,0.1753736062085699,0.04725598457209961,1224.641629809467,22870.60778094152
6.703351675837919,945.7479398579126,944.789555972667,0.1991632630051078,0.0,0.22210426557040208,0.17533243424422051,0.04725541305793435,1224.6108207325065,22880.201209141855
6.71335667833917,945.852641345383,944.8928180643737,0.19930160516660667,0.0,0.22214442685431232,0.17529110670252876,0.04725484694491791,1224.5798944329777,22889.787998398904
6.72336168084042,945.9575504886443,944.9962781392551,0.19944048287179855,0.0,0.22218474221201462,0.17524962268349217,0.047254286267652754,1224.5488502474343,22899.36816184116
6.7333666833416705,946.0626685127838,945.0999374709203,0.1995798991565451,0.0,0.2222252125347066,0.17520798128968176,0.047253731060938296,1224.517687514022,22908.94171258406
6.743371685842921,946.1679966391717,945.2037973278278,0.19971985704945938,0.0,0.22226583871105796,0.17516618162616376,0.04725318135977066,1224.4864055724286,22918.508663729957
6.753376688344172,946.2735360855986,945.3078589734502,0.19986035957215592,0.0,0.2223066216272881,0.17512422280042153,0.0472526371993424,1224.455003763823,22928.06902836811
6.7633816908454225,946.3792880664106,945.4121236664344,0.20000140973949904,0.0,0.22234756216724347,0.17508210392227858,0.047252098615042135,1224.4234814308084,22937.62281957467
6.773386693346673,946.485253792643,945.5165926607616,0.2001430105598502,0.0,0.22238866121247472,0.17503982410382135,0.047251565642454335,1224.3918379173638,22947.17005041265
6.783391695847924,946.5914344721562,945.6212672059055,0.20028516503533428,0.0,0.2224299196423192,0.17499738245931634,0.047251038317358995,1224.3600725687895,22956.71073393192
6.7933966983491745,946.6978313097593,945.7261485469834,0.20042787616205496,0.0,0.22247133833396812,0.1749547781051432,0.04725051667573139,1224.3281847316587,22966.244883169216
6.803401700850425,946.8044455073448,945.8312379249096,0.20057114693036612,0.0,0.22251291816255106,0.1749120101597099,0.04725000075374171,1224.2961737537591,22975.772511148123
6.813406703351676,946.9112782640109,945.9365365765443,0.20071498032509835,0.0,0.2225546600012063,0.17486907774338273,0.04724949058775491,1224.2640389840449,22985.293630879052
6.8234117058529264,947.0183307761852,946.042045734839,0.20085937932578818,0.0,0.22259656472115205,0.1748259799784144,0.047248986214330366,1224.2317797725857,22994.80825535926
6.833416708354177,947.1256042377511,946.1477666289811,0.2010043469069346,0.0,0.22263863319176636,0.17478271598886472,0.047248487670221585,1224.199395470511,23004.31639757286
