z,T,t,fs,fl,x,y,w,rhob,p
0.0,634.4167931983643,505.0,0.0,0.0,0.16090767982766005,0.23690030212520835,0.04773139917380325,1268.0,14330.0
0.04008016032064128,666.5140841193767,554.2005871919284,0.00013238638117008406,0.0,0.16094875041571102,0.23685923153387828,0.047731399168617905,1267.9713727660892,14376.322341893683
0.08016032064128256,694.1803705453195,596.384562987248,0.0003368812041892612,0.0,0.1610121913568158,0.23679579055504796,0.04773139910896107,1267.9271527728094,14425.889960766124
0.12024048096192384,718.1385745657245,632.7531524759639,0.0006184918955225512,0.0,0.16109955588617922,0.23670842578657933,0.04773139873085509,1267.8662570693461,14478.252970811338
0.16032064128256512,738.9660878479646,664.2502303785386,0.0009779213097859509,0.0,0.16121106126854196,0.23659691940094313,0.047731397144341575,1267.7885331818543,14533.016003687915
0.2004008016032064,757.1310017897823,691.6308932199229,0.0014131306581763236,0.0,0.16134607310682783,0.23646190443197848,0.04773139219368313,1267.6944207945855,14589.832223317595
0.24048096192384769,773.0175870580907,715.5082267440702,0.0019204950100024769,0.0,0.16150346322790696,0.23630450646546164,0.04773137978740217,1267.5847015164459,14648.397683489351
0.280561122244489,786.9446666227859,736.3862014537328,0.002495581053999453,0.0,0.16168185059634627,0.23612610245557888,0.047731353471675196,1267.460330463693,14708.446191230107
0.32064128256513025,799.1791595281578,754.6834258883903,0.003133643391832353,0.0,0.16187975529020068,0.23592816675348302,0.047731304437213656,1267.322328945207,14769.744713926497
0.3607214428857715,809.9462607559772,770.750690339702,0.003829928453699623,0.0,0.16209569319943723,0.2357121767035881,0.04773122198532556,1267.1717189996268,14832.08931254782
0.4008016032064128,819.4372255458771,784.8841812532365,0.004579852406095741,0.0,0.1623282319296213,0.23547955724831288,0.047731094331933656,1267.0094853659562,14895.30156016943
0.4408817635270541,827.8154137429256,797.3356073197336,0.005379098559844563,0.0,0.16257602185575903,0.23523165047244304,0.04773090955356128,1266.8365549393604,14959.225397278913
0.48096192384769537,835.2210477782689,808.320077619406,0.006223664301560144,0.0,0.1628378114698992,0.23496970082122645,0.047730656481914546,1266.6537871138023,15023.724374916597
0.5210420841683366,841.7750043775362,818.0223140254487,0.0071098769687685725,0.0,0.16311245292551646,0.23469485000167645,0.04773032540868033,1266.461970736117,15088.679239575338
0.561122244488978,847.5818699317969,826.601609557322,0.008034391090139396,0.0,0.16339890157547823,0.23440813772929184,0.04772990853571732,1266.2618249499278,15153.985817957066
0.6012024048096192,852.7324273292221,834.1958290862416,0.008994174874280813,0.0,0.1636962119498508,0.2341105058740074,0.047729400170749677,1266.0540022247483,15219.55316422832
0.6412825651302605,857.3056984669205,840.9246692347416,0.009986490913262758,0.0,0.16400353175210106,0.23380280445371682,0.047728796711097664,1265.8390925197311,15285.301936839376
0.6813627254509018,861.3706345950839,846.892336946999,0.011008865456398037,0.0,0.164320092176557,0.23348580121102075,0.04772809647635605,1265.617629836068,15351.162975978472
0.721442885771543,864.9894165286873,852.1924432029812,0.012074916294722345,0.0,0.1646501180109414,0.23315527133514624,0.04772729943076179,1265.3866694428496,15417.076155699167
0.7615230460921844,868.213281380072,856.9022471246708,0.01317094512018669,0.0,0.16498936085426022,0.232815464057172,0.04772640688763003,1265.1491741830719,15482.989256363353
0.8016032064128256,871.0882617601908,861.0909785093361,0.014292574356642287,0.0,0.165336464872861,0.23246773673638726,0.04772542126013069,1264.9060919885005,15548.856773131467
0.8416833667334669,873.6550948226968,864.8197944820596,0.015438229687928826,0.0,0.16569094459334666,0.2321125768733506,0.047724345754442975,1264.6577650493514,15614.639238296413
0.8817635270541082,875.9496206531709,868.142433291814,0.016606503956878838,0.0,0.1660523668786402,0.23175041997906612,0.047723184125012474,1264.4044997104183,15680.302485527964
0.9218436873747494,878.0034051777242,871.1061715076512,0.01779614039703303,0.0,0.16642034554473087,0.23138165482840256,0.04772194046923004,1264.1465699843313,15745.817000653908
0.9619238476953907,879.8442762976789,873.752645056043,0.01900601735993862,0.0,0.16679453647568201,0.2310066282396782,0.0477206190607455,1263.884220762616,15811.15735148216
1.002004008016032,881.4967869472138,876.1185561783522,0.020235134470075387,0.0,0.16717463321311982,0.23062564940230199,0.04771922421842452,1263.6176707376069,15876.301686938214
1.0420841683366733,882.9826162847118,878.2362842582887,0.02148260011646664,0.0,0.16756036298805724,0.2302389937818325,0.04771776020654737,1263.3471150524692,15941.231297008615
1.0821643286573146,884.3209182464522,880.1344152043688,0.02274762018001023,0.0,0.16795148315941802,0.22984690663502794,0.047716231161402785,1263.0727276984949,16005.930226053648
1.122244488977956,885.5286251189757,881.8382015000066,0.02402948789285091,0.0,0.16834777802290288,0.22944960616825846,0.047714641039556034,1262.7946636795045,16070.384932974841
1.1623246492985972,886.6207125194651,883.369962975532,0.025327574728178252,0.0,0.168749055954866,0.22904728637190053,0.04771299358349891,1262.5130609629741,16134.583992529326
1.2024048096192383,887.6104311443239,884.7494366955835,0.026641322223717574,0.0,0.1691551468578834,0.22864011956166982,0.04771129230094828,1262.2280422367521,16198.5178327897
1.2424849699398797,888.509509807318,885.9940830098006,0.0279702346484703,0.0,0.1695658998771684,0.2282282586557484,0.04770954045464491,1261.9397164891975,16262.178504363957
1.282565130260521,889.3283335996927,887.1193537159434,0.02931387242919085,0.0,0.1699811813596306,0.22781183921426879,0.04770774106005934,1261.6481804293753,16325.559477528428
1.3226452905811623,890.076100435334,888.1389273814021,0.03067184626015711,0.0,0.1704008730300102,0.227390981265398,0.047705896888908,1261.353519762685,16388.655463897656
1.3627254509018036,890.7609587707973,889.0649161220935,0.03204381182669425,0.0,0.17082487036103988,0.22696579094001337,0.04770401047681041,1261.0558103360472,16451.462259667274
1.4028056112224447,891.3901288944768,889.9080475163618,0.03342946507947176,0.0,0.1712530811169405,0.22653636193483628,0.04770208413377802,1260.7551191655448,16513.97660782701
1.442885771543086,891.9700098467123,890.6778248114965,0.034828538002725506,0.0,0.17168542405172002,0.22610277682191252,0.04770011995652111,1260.4515053582568,16576.1960770573
1.4829659318637274,892.5062737524885,891.3826681440964,0.036240794825185746,0.0,0.17212182774570703,0.2256651082205203,0.047698119841800495,1260.1450209389375,16638.118955300135
1.5230460921843687,893.0039491108392,892.0300391268665,0.037666028627639334,0.0,0.1725622295655132,0.22522341984594232,0.047696085500243415,1259.8357115911801,16699.74415623746
1.56312625250501,893.4674943807017,892.6265508385512,0.03910405830582513,0.0,0.1730065747342383,0.22477776744801967,0.04769401847019526,1259.5236173217634,16761.071137125742
1.6032064128256511,893.900863031289,893.1780649890338,0.04055472585154063,0.0,0.17345481550012937,0.22432819965107823,0.0476919201312986,1259.2087730560418,16822.099826621026
1.6432865731462925,894.3075610760245,893.6897778026586,0.042017893918684476,0.0,0.1739069103931853,0.22387475870560272,0.04768979171758448,1258.8912091714485,16882.830561393785
1.6833667334669338,894.6906979809718,894.1662959665445,0.04349344364441328,0.0,0.1743628235603292,0.2234174811609432,0.04768763432993237,1258.5709519754932,16943.264030477356
1.723446893787575,895.0530317281256,894.6117038216544,0.044981272698691156,0.0,0.17482252417078298,0.22295639846736415,0.04768544894780951,1258.248024133969,17003.40122642098
1.7635270541082164,895.3970087181606,895.0296228283386,0.04648129353829382,0.0,0.1752859858841772,0.22249153751487266,0.04768323644024196,1257.9224450545319,17063.243402429856
1.8036072144288577,895.7247991140773,895.4232642115069,0.04799343184382525,0.0,0.1757531863747306,0.2220229211154798,0.04768099757599949,1257.5942312302716,17122.792034772894
1.8436873747494988,896.0383281548101,895.7954755806105,0.04951762512054331,0.0,0.17622410690554688,0.22155056843485058,0.04767873303299904,1257.2633965474329,17182.04878982522
1.8837675350701402,896.3393039047426,896.1487822238437,0.05105382144579592,0.0,0.17669873194771346,0.22107449537867072,0.047676443406946774,1256.929952561013,17241.015495188196
1.9238476953907815,896.6292418498947,896.4854236922877,0.05260197834766979,0.0,0.177177048839453,0.22059471493849855,0.047674129219249683,1256.5939087415895,17299.694114396727
1.9639278557114228,896.9094867035977,896.8073862170274,0.05416206180104863,0.0,0.17765904748108083,0.2201112375013735,0.04767179092423497,1256.255272696374,17358.086724782184
2.004008016032064,897.1812317419514,897.1164314377398,0.055734045328734966,0.0,0.17814472006197632,0.21962407112699905,0.04766942891571897,1255.9140503671938,17416.195498111214
2.0440881763527052,897.4455359524017,897.4141218650167,0.05731790919657984,0.0,0.17863406081617803,0.21913322179591888,0.04766704353296992,1255.570246207811,17474.022683666153
2.0841683366733466,897.7033392466677,897.7018434495541,0.05891363969270871,0.0,0.17912706580356821,0.21863869363174823,0.047664635066109254,1255.2238633427473,17531.57059347311
2.124248496993988,897.9554759609306,897.9808255876189,0.06052122848196941,0.0,0.1796237327139331,0.21814048910020267,0.04766220376099542,1254.8749037095615,17588.84158941878
2.164328657314629,898.2026868416758,898.252158853699,0.062140672027650896,0.0,0.1801240606914707,0.21763860918737882,0.047659749823632976,1254.5233681863172,17645.83807202868
2.2044088176352705,898.4456296944642,898.5168107171176,0.06377197107334572,0.0,0.1806280501775712,0.21713305355948787,0.04765727342414776,1254.169256705807,17702.56247070699
2.244488977955912,898.6848888549779,898.7756394690224,0.06541513017856304,0.0,0.18113570276992194,0.2166238207060152,0.04765477470036678,1253.8125683579385,17759.01723526271
2.284569138276553,898.9209836269368,899.0294065589185,0.06707015730234993,0.0,0.18164702109618724,0.2161109080680775,0.047652253761039196,1253.4533014815397,17815.20482856868
2.3246492985971945,899.1543758199558,899.2787875152599,0.06873706342975314,0.0,0.18216200870069052,0.21559431215357228,0.04764971068873229,1253.0914537467231,17871.127720219814
2.3647294589178354,899.3854765124825,899.5243816019148,0.07041586223645514,0.0,0.18268066994267929,0.2150740286405591,0.0476471455424343,1252.7270222288355,17926.788381074344
2.4048096192384767,899.6146521612027,899.766720340947,0.07210656978734666,0.0,0.183203009904885,0.2145500524701794,0.04764455835989362,1252.3600034749206,17982.18927857886
2.444889779559118,899.8422301798231,900.0062750114184,0.07380920426515063,0.0,0.18372903431119686,0.21402237793031306,0.04764194915972248,1251.9903935635584,18037.332872793177
2.4849699398797593,900.0685041182809,900.2434632125105,0.07552378572549505,0.0,0.18425874945235549,0.21349099873108307,0.04763931794329138,1251.6181881588684,18092.22161304689
2.5250501002004007,900.2937385910283,900.4786545565689,0.0772503358750114,0.0,0.18479216211862748,0.21295590807326306,0.04763666469644018,1251.2433825594323,18146.857935175245
2.565130260521042,900.518174133405,900.712175531748,0.07898887786910902,0.0,0.18532927953844358,0.2124170987106217,0.047633989391031306,1250.8659717428766,18201.244259299794
2.6052104208416833,900.7420322136079,900.9443135429835,0.08073943612600958,0.0,0.18587010932196446,0.2118745630072562,0.04763129198637174,1250.4859504068672,18255.382988140023
2.6452905811623246,900.9655207019983,901.1753201019887,0.08250203615337563,0.0,0.18641465940846177,0.21132829299104602,0.047628572430532624,1250.103313007323,18309.2765058676
2.685370741482966,901.1888402100492,901.405413090023,0.08427670438338004,0.0,0.18696293801625413,0.21077828040450763,0.047625830661599734,1249.7180537947665,18362.92717754829
2.7254509018036073,901.4121918724937,901.6347779614555,0.08606346801127283,0.0,0.18751495359369874,0.2102245167545752,0.04762306660889443,1249.3301668499053,18416.337349261332
2.7655310621242486,901.6357873763704,901.863567697505,0.08786235483135472,0.0,0.188070714769391,0.2096669933631861,0.04762028019421426,1248.9396461197787,18469.509349047123
2.8056112224448895,901.8598623601238,902.0919012785504,0.08967339306277404,0.0,0.18863023029927056,0.20910570142101018,0.04761747133315495,1248.5464854561567,18522.445488918507
2.845691382765531,902.0846947312199,902.3198604739262,0.09149661115592916,0.0,0.1891935090078384,0.20854063204716827,0.047614639936588044,1248.150678658212,18575.148068286835
2.885771543086172,902.3106299779781,902.5474849746859,0.09333203756918453,0.0,0.18976055972035963,0.20797177635811476,0.04761178591237775,1247.7522195217477,18627.619379309337
2.9258517034068134,902.538116119386,902.7747665787754,0.09517970050688049,0.0,0.19033139118331482,0.20739912554846895,0.04760890916740875,1247.351101896962,18679.861714865805
2.9659318637274548,902.7677513528225,903.001644776993,0.09703962761723842,0.0,0.19090601197267068,0.20682267098422924,0.04760600960993304,1246.9473197550615,18731.877380112994
3.006012024048096,903.000347268386,903.2280095052515,0.09891184567071269,0.0,0.191484430396195,0.20624240430203314,0.04760308715206043,1246.5408672591834,18783.668708812125
3.0460921843687374,903.2370088047884,903.4537230572231,0.10079638028955014,0.0,0.1920666544112675,0.20565831749263744,0.04760014171179906,1246.1317388239925,18835.238085784884
3.0861723446893787,903.4792274774269,903.6786825858569,0.10269325589727943,0.0,0.19265269160934256,0.20507040291656964,0.04759717321323611,1245.7199291267068,18886.58797673167
3.12625250501002,903.7289751459905,903.9029545172202,0.10460249621789014,0.0,0.19324254936705654,0.20447865315021657,0.04759418158210469,1245.3054329967176,18937.720965911336
3.1663326653306614,903.9887713380457,904.1270122706873,0.10652412585848858,0.0,0.1938362353258449,0.20388306049766108,0.047591166732272795,1244.8882450659412,18988.639800406796
3.2064128256513023,904.2616820900731,904.3520789944175,0.10845817364418088,0.0,0.19443375840285673,0.2032836159619209,0.047588128537530326,1244.4683590321958,19039.347436622284
3.2464929859719436,904.5512043075906,904.5805009348179,0.11040467819982265,0.0,0.19503513048312346,0.20268030752294203,0.04758506678441791,1244.045766426309,19089.847080729985
3.286573146292585,904.861012871022,904.8159784832593,0.11236369553627708,0.0,0.19564036871934395,0.20207311779707515,0.047581981107824696,1243.6204549363144,19140.142211755934
3.3266533066132262,905.1946019815596,905.0634513283223,0.11433530717884297,0.0,0.19624949799549357,0.2014620215292058,0.04757887092101719,1243.1924066113495,19190.23657657897
3.3667334669338675,905.554911305551,905.3285610820923,0.11631962636622427,0.0,0.19686255280410475,0.20084698368022283,0.04757573535991363,1242.7615964906056,19240.134151976858
3.406813627254509,905.944046426784,905.6168484727577,0.11831679995776077,0.0,0.1974795778199173,0.20022795883894248,0.0475725732602806,1242.327992178393,19289.839078218312
3.44689378757515,906.3631625732418,905.9329910323967,0.12032700506107737,0.0,0.1981006268691135,0.19960489226370498,0.04756938317485999,1241.891554582785,19339.355576725502
3.4869739478957915,906.8125106005776,906.2803295838731,0.1223504410947664,0.0,0.1987257605092972,0.19897772233370867,0.04756616342287512,1241.4522396591603,19388.687866903005
3.527054108216433,907.2915923741011,906.6607486237825,0.12438731891383352,0.0,0.19935504271167795,0.19834638390852938,0.04756291215596214,1241.0100007979165,19437.840094146166
3.567134268537074,907.7993600261748,907.0748246970339,0.12643784840965155,0.0,0.19998853707025127,0.19771081216113404,0.04755962742487712,1240.5647915424706,19486.81627527831
3.6072144288577155,908.3344091064494,907.5221081701734,0.1285022250426842,0.0,0.20062630267158432,0.1970709467443312,0.04755630723678392,1240.1165685328751,19535.620262383003
3.6472945891783564,908.895139019062,908.0014293476984,0.13058061457107495,0.0,0.20126838939309386,0.19642673652014334,0.04755294959896748,1239.6652948320998,19584.25572269933
3.6873747494989977,909.4798726137593,908.5111673579937,0.13267313400297448,0.0,0.2019148320179764,0.1957781454639812,0.047549552549037935,1239.2109440614834,19632.72613090191
3.727454909819639,910.0869371757516,909.0494588321623,0.13477982541707303,0.0,0.20256564212743564,0.19512516078434797,0.04754611417379411,1238.7535060721348,19681.03477001077
3.7675350701402803,910.7147130249461,909.6143456493713,0.13690061746439758,0.0,0.20322079616305594,0.19446780486699078,0.04754263261953927,1238.292995275445,19729.184737687694
3.8076152304609217,911.3616561089336,910.2038703720891,0.1390352666686429,0.0,0.20388021721549546,0.19380615348900276,0.04753910609650111,1237.8294633387316,19777.178955325984
3.847695390781563,912.0262992939842,910.8161297997792,0.1411832665664816,0.0,0.20454374683052473,0.19314036401326973,0.04753553287959926,1237.3630188331551,19825.020177893493
3.8877755511022043,912.7072345738624,911.4492952673515,0.14334370668882285,0.0,0.2052111012486163,0.1924707191482175,0.04753191130739756,1236.89385772704,19872.71100284274
3.9278557114228456,913.4030755645723,912.1016050938905,0.14551505492093636,0.0,0.20588180386778454,0.19179769448414766,0.04752823978080153,1236.4223104476025,19920.253876520357
3.967935871743487,914.112396631453,912.7713309847093,0.1476948262104182,0.0,0.20655508243946244,0.19112206129730255,0.04752451676296715,1235.948913519491,19967.651096376176
4.008016032064128,914.833642201735,913.456716796872,0.14987909074475894,0.0,0.20722971645126992,0.1904450391687991,0.047520740781991734,1235.4745159179433,20014.90480690013
4.04809619238477,915.5649985431022,914.1558857741765,0.15206177479118377,0.0,0.2079038201722307,0.18976851294404687,0.04751691043824245,1235.0004302592038,20062.016986673167
4.0881763527054105,916.3042238452836,914.8667132155257,0.15423373971999757,0.0,0.20857455686740195,0.1890953185270905,0.04751302441854053,1234.5286319602976,20108.989423455132
4.128256513026052,917.048447321573,915.5866697685047,0.15638173125864374,0.0,0.20923781274428932,0.18842956894899826,0.047509081519563665,1234.0619864651767,20155.82367448253
4.168336673346693,917.7939826043248,916.3126619921472,0.15848752152943696,0.0,0.20988793072107811,0.18777692062130868,0.04750508068211541,1233.6044347892912,20202.52101135286
4.208416833667335,918.5362547645664,917.0409329821517,0.16052790501077507,0.0,0.21051770917407267,0.18714457461657022,0.04750102103535416,1233.1609944172083,20249.082354674734
4.248496993987976,919.2699810549402,917.7671185847433,0.16247641567118035,0.0,0.2111189347824363,0.18654074385410477,0.04749690194501039,1232.7373880160128,20295.508213496578
4.288577154308617,919.9896955372886,918.4865358879066,0.16430718774349343,0.0,0.21168358057260242,0.18597345508091095,0.04749272305339715,1232.3392086034542,20341.798654271533
4.328657314629258,920.6905168336141,919.1946706899568,0.1660000253939174,0.0,0.21220537910894327,0.18544897569168012,0.047488484296289976,1231.9708232919784,20387.95332381051
4.368737474949899,921.3688445449284,919.8876872459128,0.1675444089742828,0.0,0.2126810657082025,0.18497057050462148,0.04748418588751262,1231.6345069682745,20433.971532731768
4.408817635270541,922.0226724246141,920.5627520810151,0.1689404748383283,0.0,0.2131106825184692,0.18453819765450932,0.04747982827469405,1231.3302303935238,20479.85237879983
4.448897795591182,922.6514590268728,921.218090368384,0.17019696268577783,0.0,0.21349694157218524,0.18414914550219702,0.04747541208001061,1231.05610403719,20525.594874402424
4.488977955911824,923.2557404228221,921.8528452653145,0.17132775235719577,0.0,0.213844150106225,0.18379910727702695,0.04747093804088235,1230.8091269279491,20571.198049376213
4.529058116232465,923.8367099952555,922.4668617185018,0.17234865489785045,0.0,0.2141572147659677,0.18348317684100138,0.047466406959768795,1230.585880526485,20616.661018698796
4.569138276553106,924.3958904996216,923.0604799397598,0.17327523141196602,0.0,0.214440964736325,0.18319652553342083,0.04746181966570242,1230.3830003553296,20661.983019003612
4.609218436873747,924.9349221635414,923.6343715786622,0.17412164143318531,0.0,0.214699794343905,0.18293475955109498,0.047457176986428214,1230.1974250119422,20707.16342330285
4.649298597194389,925.4554424364803,924.1894203465963,0.1749002124439288,0.0,0.21493752944488603,0.18269405354808682,0.04745247972883487,1230.0264892450984,20752.20174268011
4.68937875751503,925.9590248314063,924.7266379854022,0.17562141749569052,0.0,0.21515742045749556,0.18247115759471086,0.047447728665484405,1229.8679287868854,20797.09762109431
4.729458917835671,926.4471516749022,925.2471056683986,0.17629404345591487,0.0,0.2153621945538963,0.18226334497990757,0.04744292452554373,1229.7198439660158,20841.850826993865
4.7695390781563125,926.9212048620287,925.7519331234013,0.17692542493812305,0.0,0.21555412823913264,0.18206833962857064,0.047438067988897596,1229.5806491195467,20886.46124376514
4.809619238476953,927.3824655904469,926.2422301034667,0.17752168147955694,0.0,0.21573512094155534,0.18188424250886234,0.047433159682579454,1229.4490213036256,20930.928860045697
4.849699398797595,927.8321185883283,926.719086545783,0.1780879335857442,0.0,0.21590676133763698,0.18170946530621804,0.04742820088955802,1229.3238535749917,20975.25376039109
4.889779559118236,928.2712897482177,927.183560340573,0.1786286960647192,0.0,0.21607038239254847,0.18154267538621746,0.047423260575744766,1229.2041699393747,21019.436117422494
4.929859719438878,928.7010166744634,927.6366803535321,0.17914772329912695,0.0,0.21622710603445963,0.1813827511274517,0.047418382714847426,1229.0891588160762,21063.476185721975
4.969939879759519,929.1222380580501,928.0794294039337,0.17964807594674592,0.0,0.2163778853601562,0.1812287397069754,0.04741356475110093,1228.9781586069,21107.374292476023
5.01002004008016,929.535818653518,928.5127366125371,0.18013237217480124,0.0,0.21652353578477318,0.18107982594952998,0.04740880440897838,1228.870603368342,21151.130830028927
5.050100200400801,929.9425550910219,928.9374763987694,0.18060286614783644,0.0,0.2166647594235283,0.18093530794704024,0.047404099669722116,1228.7660058404397,21194.74624946287
5.090180360721443,930.3431813077676,929.3544687459953,0.18106151128860765,0.0,0.21680216474016942,0.18079457741151947,0.047399448756640206,1228.6639437684125,21238.221054726684
5.130260521042084,930.7383735999954,929.7644803761452,0.18151001135273354,0.0,0.2169362824138425,0.18065710380962496,0.04739485012082404,1228.5640488595143,21281.555797272093
5.170340681362725,931.1287553120965,930.1682265611853,0.181949861798507,0.0,0.21706757819409983,0.18052242150910125,0.047390302427414495,1228.4659978384861,21324.75107115838
5.210420841683367,931.5149011832692,930.5663733644848,0.1823823834293985,0.0,0.21719646335749132,0.18039011932363783,0.047385804542503636,1228.3695051739612,21367.8075085884
5.2505010020040075,931.8973413725762,930.9595401551587,0.18280874987341564,0.0,0.21732330325097127,0.18025983197088616,0.04738135552072815,1228.274317137561,21410.725775841816
5.290581162324649,932.2765651823823,931.3483022767864,0.183230010132181,0.0,0.21744842430459405,0.180131233061145,0.047376954593586144,1228.1802069290861,21453.50656957331
5.33066132264529,932.6530244991687,931.7331937816909,0.18364710717172372,0.0,0.2175721198150603,0.1800040293151405,0.047372601158489916,1228.086970657591,21496.150613446254
5.370741482965932,933.0271369696014,932.1147101648783,0.18406089332189554,0.0,0.21769465473806304,0.17987795577294366,0.047368294768552234,1227.994424012515,21538.658655074003
5.410821643286573,933.3992889288111,932.4933110495359,0.18447214309142654,0.0,0.21781626967778933,0.17975277180566465,0.0473640351230932,1227.9023994935903,21581.03146324317
5.4509018036072145,933.7698380969844,932.8694227897308,0.18488156388046484,0.0,0.21793718422310515,0.17962825778039182,0.04735982205884627,1227.8107440953404,21623.269825395142
5.490981963927855,934.1391160596361,933.2434409665738,0.18528980497467853,0.0,0.21805759974962907,0.17950421225917185,0.047355655541835996,1227.7193173631097,21665.374545343577
5.531062124248497,934.5074305462667,933.6157327623048,0.18569746512864643,0.0,0.2181777017832126,0.1793804496365096,0.047351535659896526,1227.6279897540817,21707.346441207723
5.571142284569138,934.8750675213979,933.9866392029718,0.18610509898551722,0.0,0.218297662001504,0.17925679813871603,0.047347462615796754,1227.5366412498856,21749.186343542326
5.611222444889779,935.242293101402,934.3564772651591,0.18651322253299704,0.0,0.2184176399357148,0.17913309812298364,0.04734343672093707,1227.4451601775222,21790.89509364718
5.651302605210421,935.6093553098261,934.7255418457487,0.18692231775755475,0.0,0.2185377844228671,0.17900920062591633,0.04733945838958189,1227.3534422036164,21832.473542039857
5.691382765531062,935.9764856833559,935.0941075964117,0.18733283662927483,0.0,0.21865823484965868,0.1788849661203782,0.0473355281335921,1227.26138947335,21873.92254707713
5.731462925851703,936.3439007398229,935.4624306263672,0.1877452045254504,0.0,0.21877912222153179,0.17876026344708018,0.04733164655762287,1227.168909870715,21915.242973711607
5.771543086172344,936.7118033190505,935.8307500783362,0.1881598231820108,0.0,0.21890057008463426,0.17863496889321634,0.04732781435475259,1227.0759163808157,21956.435692370997
5.811623246492986,937.0803838067362,936.1992895835685,0.18857707324657902,0.0,0.21902269532361474,0.17850896539521474,0.04732403230251062,1226.9823265382697,21997.50157794885
5.851703406813627,937.4498212508705,936.5682586023731,0.1889973164941237,0.0,0.2191456088542102,0.1783821418466455,0.04732030125927254,1226.8880619485265,22038.441508896354
5.891783567134269,937.8202843796244,936.9378536569208,0.18942089775618523,0.0,0.21926941622648294,0.17825439249543354,0.04731662216099359,1226.7930478710805,22079.25636640576
5.9318637274549095,938.1919325290403,937.3082594632308,0.18984814660646424,0.0,0.2193942181520222,0.17812561641706295,0.04731299601825243,1226.697212855336,22119.94703367682
5.971943887775551,938.5649164882462,937.679649969204,0.1902793788383962,0.0,0.21952011096619833,0.17799571705268882,0.04730942391357921,1226.6004884214115,22160.514395258426
6.012024048096192,938.9393792694212,938.0521893054738,0.19071489776519032,0.0,0.2196471870349608,0.17786460180266783,0.047305906999043475,1226.502808779306,22200.959336458327
6.052104208416833,939.3154568091403,938.4260326556009,0.19115499536767622,0.0,0.21977553511407372,0.17773218166761667,0.04730244649407918,1226.4041105809451,22241.282742814543
6.092184368737475,939.6932786073037,938.8013270519131,0.1915999533119383,0.0,0.21990524066763878,0.17759837093015082,0.047299043683525846,1226.3043327003547,22281.48549962248
6.132264529058116,940.0729683092937,939.1782121029446,0.19205004385495128,0.0,0.22003638615158316,0.17746308687162837,0.04729569991586603,1226.2034160380288,22321.568491512604
6.1723446893787575,940.4546442366517,939.5568206581689,0.1925055306543501,0.0,0.22016905126714365,0.17732624951887044,0.047292416601641046,1226.101303346001,22361.532602073807
6.212424849699398,940.8384198710418,939.9372794153011,0.1929666694955278,0.0,0.22030331318846366,0.17718778141674288,0.0472891952120283,1225.9979390707767,22401.378713518134
6.25250501002004,941.2244042959543,940.3197094751745,0.1934337089478791,0.0,0.2204392467679912,0.17704760742291328,0.04728603727756468,1225.8932692115586,22441.107706382973
6.292585170340681,941.6127026001858,940.7042268488204,0.19390689096003394,0.0,0.2205769247227519,0.17690565452171159,0.04728294438700189,1225.7872411916503,22480.72045926723
6.332665330661323,942.0034162467957,941.0909429210526,0.19438645140258362,0.0,0.2207164178041529,0.17676185165443833,0.04727991818628052,1225.6798037411984,22520.217848598233
6.372745490981964,942.3966434109287,941.4799648745521,0.19487262056573326,0.0,0.22085779495364177,0.17661612956380016,0.04727696037761083,1225.570906789659,22559.60074842651
6.4128256513026045,942.7924792895647,941.8713960781117,0.1953656236180345,0.0,0.22100112344614398,0.17646842065054866,0.04727407271864932,1225.46050136667,22598.87003024601
6.452905811623246,943.1910163860045,942.2653364424272,0.19586568103168078,0.0,0.22114646902299412,0.17631865884060877,0.04727125702176064,1225.3485395101397,22638.02656283721
6.492985971943887,943.592344771631,942.6618827465311,0.1963730089789659,0.0,0.221293896015802,0.1761667794612579,0.047268515153355777,1225.234974180553,22677.07121213123
6.533066132264529,943.9965523272339,943.0611289377001,0.19688781970379757,0.0,0.22144346746247115,0.1760127191251372,0.047265849033297655,1225.1197591806642,22716.004841093032
6.57314629258517,944.4037249659746,943.4631664074137,0.19741032187158458,0.0,0.22159524521641202,0.17585641562105536,0.047263260634366276,1225.0028490798536,22754.828309621917
6.613226452905812,944.8139468398706,943.8680842457268,0.19794072090039222,0.0,0.22174929004985602,0.17569780781067898,0.04726075198177622,1224.8841991425213,22793.542474467962
6.6533066132264524,945.2273005314756,944.2759694761791,0.19847921927568415,0.0,0.22190566175200033,0.1755368355303796,0.047258325152739394,1224.7637652600226,22832.148189162977
6.693386773547094,945.6438672322548,944.6869072731726,0.19902601685058124,0.0,0.22206441922258915,0.17537343949763337,0.04725598227606705,1224.6415038857247,22870.646303964717
6.733466933867735,946.0637269090219,945.1009811635605,0.19958131113337033,0.0,0.22222562056147802,0.17520756122142683,0.04725372553180508,1224.5173719728093,22909.037665813306
6.773547094188377,946.4869584596311,945.5182732140217,0.20014529756353355,0.0,0.22238932315458101,0.17503914291626885,0.04725155715089715,1224.3913269145507,22947.323118298886
6.813627254509018,946.9136398589991,945.9388642056242,0.20071816977737153,0.0,0.22255558375654186,0.1748681274194696,0.0472494794148706,1224.2633264868357,22985.503501639534
6.853707414829659,947.3438482964193,946.3628337968505,0.20130011986417087,0.0,0.22272445857042847,0.17469445811138593,0.047247494655540234,1224.133328792717,23023.579652668777
6.8937875751503,947.7776603049832,946.7902606761998,0.2018913386133717,0.0,0.22289600332459839,0.17451807883848636,0.047245605254725466,1224.001292208909,23061.55240483178
6.933867735470941,948.215151883907,947.2212227054018,0.20249201575361708,0.0,0.22307027334701407,0.17433893383895788,0.04724381364397665,1223.8671753340263,23099.422588189747
6.973947895791583,948.6563986143594,947.6557970541087,0.20310234018364406,0.0,0.223247323637,0.1741569676708616,0.047242122304306154,1223.7309369385844,23137.19102943181
7.014028056112224,949.1014757694157,948.0940603268821,0.20372250019558974,0.0,0.22342720893462434,0.17397212514265556,0.04724053376592062,1223.5925359166276,23174.858551893867
7.054108216432866,949.5504584186325,948.5360886831817,0.20435268369084322,0.0,0.2236099837877495,0.17378435124603955,0.04723905060795022,1223.4519312389657,23212.425975583963
7.0941883767535066,950.0034215276814,948.9819579509691,0.2049930783884604,0.0,0.22379570261676218,0.1735935910911131,0.04723767545817154,1223.309081908009,23249.89411721364
7.134268537074148,950.4604400534383,949.4317437344865,0.2056438720262633,0.0,0.2239844197770231,0.17339978984380464,0.04723641099272007,1223.1639469141796,23287.263790234912
7.174348697394789,950.9215890348729,949.885521516696,0.2063052525546956,0.0,0.22417618961906322,0.1732028926655464,0.047235259935789226,1223.0164851938816,23324.535804882464
7.214428857715431,951.3869436800472,950.3433667568154,0.2069774083234367,0.0,0.22437106654653102,0.17300284465519014,0.04723422505931209,1222.86665558903,23361.710968220694
7.254509018036072,951.8565794494762,950.8053549833252,0.2076605282607213,0.0,0.22456910507187716,0.1727995907931772,0.04723330918262253,1222.71441680815,23398.790084195283
7.294589178356713,952.330572136076,951.2715618827735,0.2083548020452853,0.0,0.22477035986975608,0.17259307588798364,0.04723251517209235,1222.5597273890633,23435.77395368901
7.3346693386773545,952.8089979419359,951.7420633846966,0.20906042027113306,0.0,0.22497488582820818,0.1723832445247766,0.04723184594074089,1222.4025456631225,23472.663374581458
7.374749498997995,953.2919335520774,952.2169357429021,0.20977757460496227,0.0,0.22518273809757514,0.17217004101632963,0.04723130444781399,1222.2428297210213,23509.45914181241
7.414829659318637,953.7794562053571,952.696255613348,0.210506457936223,0.0,0.22539397213714443,0.17195340935620015,0.04723089369832852,1222.0805373801943,23546.162047448684
7.454909819639278,954.2716437626983,953.1801001288442,0.21124726452006765,0.0,0.22560864375960618,0.1717332931740871,0.0472306167425794,1221.9156261537469,23582.772880754066
7.49498997995992,954.7685747727489,953.6685469707429,0.21200019011295515,0.0,0.22582680917325165,0.17150963569343783,0.04723047667560558,1221.7480532209636,23619.2924282623
7.535070140280561,955.2703285351112,954.1616744378022,0.2127654321011492,0.0,0.2260485250219919,0.17128237969122742,0.04723047663661156,1221.5777753993493,23655.721473852736
7.575150300601202,955.776985161274,954.6595615123806,0.21354318962226024,0.0,0.2262738484232454,0.1710514674598597,0.04723061980834085,1221.4047491181645,23692.060798828577
7.615230460921843,956.2886256333311,955.1622879240971,0.21433366367975556,0.0,0.2265028370036752,0.17081684077121068,0.04723090941639808,1221.2289303934765,23728.311181997484
7.655310621242485,956.8053318606112,955.6699342110945,0.21513705725071355,0.0,0.2267355489328642,0.17057844084272544,0.047231348728516226,1221.0502748046613,23764.47339975438
7.695390781563126,957.3271867343101,956.1825817790282,0.21595357538690238,0.0,0.22697204295495624,0.1703362083055398,0.04723194105376526,1220.8687374723436,23800.54822616625
7.735470941883767,957.8542741802386,956.7003129579053,0.2167834253094444,0.0,0.2272123784183488,0.17009008317454224,0.04723268974169887,1220.6842730377155,23836.536433058875
7.775551102204409,958.3866792097666,957.2232110568785,0.21762681649715285,0.0,0.22745661530346548,0.16984000482034647,0.04723359818143545,1220.496835643216,23872.4387901052
7.8156312625250495,958.9244879690597,957.7513604171007,0.2184839607687396,0.0,0.22770481424867517,0.1695859119431087,0.04723466980066992,1220.3063789145267,23908.25606491543
7.855711422845691,959.4677877867197,958.2848464627564,0.21935507235926774,0.0,0.22795703657447555,0.16932774254807054,0.047235908064612635,1220.1128559438055,23943.989023128466
7.895791583166332,960.0166672198839,958.8237557503516,0.22024036799077348,0.0,0.2282133443059221,0.1690654339228477,0.04723731647485176,1219.9162192741735,23979.63842850478
7.935871743486974,960.5712160989068,959.3681760163734,0.2211400669375443,0.0,0.2284738001934561,0.1687989226163097,0.04723889856813529,1219.716420885347,24015.205043020454
7.975951903807615,961.1315254961646,959.9181961819131,0.22205439056010465,0.0,0.22873846756882152,0.16852814458236004,0.047240657915068984,1219.5134122941477,24050.689626962798
8.016032064128256,961.6976807269344,960.4739020289566,0.22298351639633207,0.0,0.22900739609061554,0.16825304943423902,0.047242598118934685,1219.307154481717,24086.092938804708
8.056112224448897,962.2697833135377,961.0353891748887,0.22392772692687252,0.0,0.22928066793871826,0.1679735542496285,0.04724472281372635,1219.0975857240796,24121.415735545183
8.09619238476954,962.8479286777975,961.6027507506137,0.22488725121423614,0.0,0.22955834864178368,0.16768959274264608,0.04724703566259505,1218.8846558356631,24156.65877301233
8.13627254509018,963.43221365281,962.1760812063231,0.2258623209852324,0.0,0.22984050449228827,0.1674010978486,0.047249540356518994,1218.6683140418631,24191.822805736487
8.176352705410821,964.0227365735319,962.7554763883805,0.2268531709765058,0.0,0.23012720265483136,0.1671080016153373,0.0472522406125072,1218.4485089040243,24226.908587048776
8.216432865731463,964.6195973178278,963.3410335865669,0.22786003894477844,0.0,0.23041851117039827,0.16681023519861718,0.04725514017170018,1218.2251883169122,24261.91686918069
8.256513026052104,965.2228973458786,963.9328515788332,0.2288831656759397,0.0,0.2307144989603449,0.16650772885775056,0.04725824279736337,1217.998299506425,24296.84840336448
8.296593186372744,965.8327397381745,964.5310306738854,0.22992279499289342,0.0,0.23101523583007896,0.16620041195153093,0.047261552272769174,1217.7677890275643,24331.703939934298
8.336673346693386,966.4492292322933,965.135672751894,0.23097917376207347,0.0,0.23132079247241488,0.16588821293447895,0.0472650723989636,1217.5336027626804,24366.484228428002
8.376753507014028,967.072472258639,965.7468813035739,0.23205255189853738,0.0,0.23163124047057645,0.16557105935342623,0.047268806992413245,1217.2956859200183,24401.19001768947
8.41683366733467,967.7025769752896,966.364761467864,0.23314318236955,0.0,0.2319466523008245,0.16524887784446132,0.047272759882528846,1217.0539830325733,24435.8220559715
8.45691382765531,968.339653302093,966.9894200683968,0.23425132119656553,0.0,0.2322671013346831,0.16492159413026355,0.047276934909061624,1216.8084379572883,24470.381091039093
8.496993987975952,968.9838129541246,967.6209656489266,0.23537722745551387,0.0,0.2325926618407386,0.16458913301784975,0.04728133591936843,1216.5589938745984,24504.867870273214
8.537074148296593,969.6351694746077,968.2595085078672,0.236521163275302,0.0,0.23292340898598674,0.1642514183967592,0.04728596676554219,1216.3055932883558,24539.283140774893
8.577154308617233,970.2938382673906,968.9051607320733,0.23768339383443743,0.0,0.23325941883670126,0.1639083732377027,0.047290831301404095,1216.048178026143,24573.627649469676
8.617234468937875,970.959936629056,969.5580362299733,0.23886418735567722,0.0,0.23360076835879648,0.16355991959170152,0.047295933379353824,1215.7866892400054,24607.9021432124
8.657314629258517,971.6335837807287,970.2182507641559,0.24006381509860558,0.0,0.23394753541765634,0.16320597858974534,0.04730127684707463,1215.5210674076127,24642.107368892306
8.697394789579159,972.314900899644,970.885921983499,0.24128255135004262,0.0,0.23429979877740187,0.1628464704429954,0.0473068655440898,1215.2512523338812,24676.244073538353
8.737474949899799,973.0040111505231,971.5611694549114,0.2425206734121819,0.0,0.23465763809956672,0.16248131444356265,0.047312703298167426,1214.977183153066,24710.3130044249
8.77755511022044,973.7010397168015,972.2441146947565,0.24377846158835456,0.0,0.23502113394115173,0.16211042896589042,0.04731879392157026,1214.698798331362,24744.314909177614
8.817635270541082,974.4061138317461,972.9348812000126,0.24505619916631263,0.0,0.235390367752026,0.16173373146877254,0.04732514120714779,1214.4160356700145,24778.250535879582
8.857715430861724,975.1193628094925,973.6335944792182,0.24635417239892282,0.0,0.23576542187164246,0.16135113849803848,0.04733174892426757,1214.1288323089836,24812.120633177776
8.897795591182364,975.8409180760261,974.3403820832452,0.24767267048215605,0.0,0.23614637952503412,0.16096256568993966,0.047338620814583246,1213.8371247311711,24845.9259503897
8.937875751503006,976.570913200126,975.055373635931,0.24901198553025244,0.0,0.23653332481805314,0.16056792777527243,0.047345760587636426,1213.5408487672466,24879.66723761029
8.977955911823647,977.3094839242822,975.7787008646018,0.25037241254793136,0.0,0.23692634273181495,0.1601671385842765,0.047353171916290376,1213.2399396010885,24913.3452458191
9.018036072144287,978.0567681955987,976.5104976305091,0.2517542493995164,0.0,0.23732551911630598,0.15976011105234855,0.04736085843199279,1212.934331775882,24946.960726987672
9.05811623246493,978.8129061966757,977.2508999591995,0.25315779677482125,0.0,0.2377309406831086,0.15934675722661676,0.047368823719866004,1212.6239592008924,24980.514434187207
9.098196392785571,979.5780403764632,978.0000460708278,0.25458335815163147,0.0,0.23814269499719112,0.15892698827342827,0.047377071313622295,1212.3087551589597,25014.00712169649
9.138276553106213,980.3523154810622,978.7580764104251,0.2560312397545878,0.0,0.23856087046770322,0.15850071448680758,0.04738560469030287,1211.9886523147484,25047.439545110003
9.178356713426853,981.1358785844358,979.5251336781184,0.25750175051024515,0.0,0.23898555633770513,0.15806784529795684,0.04739442726483882,1211.6635827238056,25080.812461446323
9.218436873747494,981.9288791189654,980.3013628593017,0.25899520199802517,0.0,0.23941684267274338,0.15762828928588532,0.04740354238443279,1211.3334778424842,25114.126629256814
9.258517034068136,982.7314689057591,981.0869112547384,0.26051190839671245,0.0,0.23985482034816166,0.15718195418927705,0.04741295332276025,1210.9982685388093,25147.382808734426
9.298597194388778,983.5438021845692,981.8819285105766,0.26205218642602907,0.0,0.24029958103500254,0.15672874691974104,0.04742266327398953,1210.657885104385,25180.581761822832
9.338677354709418,984.3660356431049,982.6865666482294,0.2636163552826674,0.0,0.24075121718430426,0.15626857357663854,0.04743267534662002,1210.3122572674738,25213.724252325683
9.37875751503006,985.1983284454275,983.5009800940691,0.2652047365699226,0.0,0.24120982200952415,0.15580133946375488,0.047442992557138144,1209.9613142074386,25246.811046016093
9.418837675350701,986.0408422589554,984.3253257088373,0.2668176542197067,0.0,0.24167548946670758,0.15532694910819536,0.04745361782349143,1209.6049845708046,25279.842910746145
9.458917835671341,986.89374127938,985.1597628166502,0.26845543440520664,0.0,0.2421483142318596,0.15484530628204793,0.04746455395838068,1209.2431964893176,25312.820616556477
9.498997995991983,987.7571922524501,986.0044532334143,0.27011840544164406,0.0,0.24262839167472527,0.15435631402760416,0.04747580366237145,1208.8758776005488,25345.744935785722
9.539078156312625,988.6313644910495,986.859561294392,0.2718068976713862,0.0,0.24311581782780972,0.15385987468730802,0.047487369516825764,1208.5029550718527,25378.616643179656
9.579158316633267,989.5164298852001,987.7252538805448,0.27352124332781913,0.0,0.243610689348896,0.1533558899401715,0.04749925397665649,1208.1243556288919,25411.436515999718
9.619238476953907,990.4125629013942,988.6017004431162,0.2752617763695803,0.0,0.24411310347444357,0.152844260847274,0.04751145936290712,1207.7400055905352,25444.20533413053
9.659318637274549,991.31994056578,989.4890730256978,0.27702883227242037,0.0,0.24462315795990544,0.15232488791030624,0.04752398785516123,1207.349830912892,25476.92388018563
9.69939879759519,992.2387424228137,990.3875462826843,0.27882274775928517,0.0,0.24514095100092262,0.1517976711491984,0.047536841483787756,1206.953757246669,25509.59293961053
9.739478957915832,993.1691504564743,991.297297492567,0.2806438604388322,0.0,0.2456665811261298,0.1512625102080983,0.047550022122030806,1206.5517100142968,25542.213300781477
9.779559118236472,994.1113489540791,992.2185065638514,0.28249250830640266,0.0,0.24620014704726775,0.150719304504002,0.04756353147795699,1206.1436145167615,25574.785755097535
9.819639278557114,995.0655242816634,993.1513560304484,0.2843690290360774,0.0,0.24674174744440303,0.1501679534402372,0.047577371086279775,1205.729396085582,25607.311097062466
9.859719438877756,996.0318645224195,994.0960310320858,0.2862737589524062,0.0,0.24729148065160117,0.1496083567194512,0.047591542300090155,1205.3089803040143,25639.790124350704
9.899799599198396,997.0105589019958,995.0527192734478,0.2882070315069822,0.0,0.24784944418867821,0.1490404148104803,0.04760604628253953,1204.882293335298,25672.2236378488
9.939879759519037,998.001796880351,996.021610953245,0.2901691749840606,0.0,0.2484157340532485,0.14846402965488287,0.047620883998545534,1204.4492624175787,25704.61244165889
9.97995991983968,999.0057667192433,997.0028986509548,0.292160508997907,0.0,0.24899044363705441,0.14787910574915353,0.047636056206633,1204.009816620073,25736.957343042915
10.02004008016032,1000.0226532209099,997.9967771542857,0.29418133908509386,0.0,0.2495736620498575,0.14728555181934175,0.04765156345108905,1203.5638880111571,25769.259152274455
10.06012024048096,1001.0526341502665,999.0034432039745,0.2962319482764697,0.0,0.2501654715040018,0.14668328343497267,0.04766740605471905,1203.1114134795475,25801.518682345406
10.100200400801603,1002.0958745562765,1000.0230951233167,0.298312583856509,0.0,0.2507659432021681,0.14607222711975948,0.047683584112667245,1202.6523375961474,25833.736748443902
10.140280561122244,1003.1525177269206,1001.0559322852523,0.3004234364205664,0.0,0.2513751308295446,0.14545232685789888,0.047700097488054025,1202.1866171413942,25865.914167069808
10.180360721442886,1004.222670731876,1002.1021543425293,0.30256460656319456,0.0,0.25199306019874396,0.14482355444764175,0.04771694581065398,1201.7142283072883,25898.051754573797
10.220440881763526,1005.3063812464629,1003.1619600851793,0.3047360516627079,0.0,0.2526197127036193,0.14418592604602418,0.047734128480607825,1201.2351782034586,25930.15032477603
10.260521042084168,1006.4036003334776,1004.2355456335024,0.3069375006444493,0.0,0.2532549988124839,0.14353952867431555,0.04775164468040477,1200.7495232876197,25962.210685111593
10.30060120240481,1007.5141226948896,1005.3231012545956,0.3091683174270082,0.0,0.2538987155981191,0.14288456268692198,0.04776949340034974,1200.2573988930385,25994.233630415423
10.34068136272545,1008.6374884565116,1006.4248544568895,0.31142728302955924,0.0,0.2545504789602705,0.14222140954740134,0.04778767348798306,1199.759066344376,26026.219932917273
10.380761523046091,1009.7727684022062,1007.5412124022184,0.3137122528456937,0.0,0.25520961691718924,0.1415507385179929,0.04780618377641923,1199.254987052439,26058.170324899907
10.420841683366733,1010.9183323855635,1008.6721584706212,0.31601962152349866,0.0,0.25587500320417783,0.14087367307453086,0.04782502319201822,1198.7459382401794,26090.085469235903
10.460921843687375,1012.071567380919,1009.8174749566522,0.3183435228326555,0.0,0.25654480851892986,0.14019203969861302,0.047844190900166936,1198.2331859959022,26121.96591882987
10.501002004008015,1013.2283875706935,1010.9765953574697,0.3206747178429766,0.0,0.2572161546723023,0.13950871375460608,0.04786368661670048,1197.7187257175822,26153.812056962746
10.541082164328657,1014.38262688503,1012.148129844943,0.3229992365184606,0.0,0.257884692063343,0.13882804208140465,0.047883511022199704,1197.2055759123468,26185.624010623542
10.581162324649299,1015.5254728732626,1013.3289344580181,0.32529714644918284,0.0,0.2585442168117371,0.1381562260117822,0.04790366621600904,1196.698044577187,26217.40153465465
10.62124248496994,1016.6453141618308,1014.5126461067555,0.32754233722321724,0.0,0.25918660406531,0.137501388368677,0.04792415603796846,1196.2017760890894,26249.143877483923
10.66132264529058,1017.7285371202605,1015.6881702022779,0.32970459494729426,0.0,0.25980245408247715,0.13687292789011007,0.04794498598345133,1195.7233030494074,26280.84966239591
10.701402805611222,1018.7615656499923,1016.8394844359412,0.33175462679632806,7.966041910400323e-08,0.2603826565376992,0.13627995510122903,0.04796616254621935,1195.2689588373112,26312.516840703945
10.741482965931864,1019.733766315111,1017.9478032211474,0.33367059298417356,8.573282937753885e-06,0.2609204446004763,0.1357291902307074,0.047987695897548234,1194.843311632106,26344.14276980951
10.781563126252504,1020.6395021726873,1018.9967093552503,0.33544277214107043,3.0504582679341518e-05,0.2614128171917438,0.13522360977094666,0.048009593332671366,1194.4483735238055,26375.724422022526
10.821643286573146,1021.4783993374531,1019.9758627362155,0.3370738870065823,6.520262349021993e-05,0.26186063333416065,0.1347623657964021,0.04803185776122884,1194.0835745604174,26407.258648828763
10.861723446893787,1022.2543281316542,1020.8818791504067,0.33857575240014276,0.00011188702148514268,0.2622675824681468,0.1343417816725455,0.04805449051942986,1193.7463816941827,26438.742421020117
10.901803607214429,1022.9737275326132,1021.7171403232311,0.3399648157889239,0.00016975616392232295,0.2626387959615767,0.13395673921093254,0.04807749194068488,1193.4332607257631,26470.172994925015
10.941883767535069,1023.6441013945063,1022.4876850179684,0.3412585852223624,0.00023805111167276452,0.2629797347318061,0.13360179005234785,0.048100861965073606,1193.1404469920064,26501.54799652098
10.98196392785571,1024.272995502284,1023.2012928968041,0.3424735228723208,0.0003160923385088211,0.26329553308618614,0.13327181124105325,0.04812460060920807,1192.864399857614,26532.865442428374
11.022044088176353,1024.8674291885302,1023.8661580542071,0.343624123466158,0.0004032954042189401,0.263590711510088,0.13296229218011185,0.048148708259254214,1192.602001558375,26564.123722351196
11.062124248496994,1025.4336436576311,1024.4901191376339,0.3447227049720423,0.0004991732237659892,0.26386911132141005,0.13266939993423582,0.048173185817639526,1192.3506023956731,26595.321562403977
11.102204408817634,1025.9770372420192,1025.0802822682726,0.34577954560691104,0.0006033309779179117,0.2641339372717506,0.13238993670589264,0.04819803474951321,1192.1079912466796,26626.457981681946
11.142284569138276,1026.5021980531253,1025.6428832216575,0.34680315093881464,0.0007154576024110905,0.2643878407491371,0.13212125676697553,0.04822325706850937,1191.872338039173,26657.532248890635
11.182364729458918,1027.0129805519375,1026.1832812583707,0.3478005429268443,0.0008353161495612424,0.2646330098756405,0.13186117651538082,0.04824885528987205,1191.6421315151044,26688.54384232599
11.222444889779558,1027.5125968186126,1026.7060183480874,0.34877752476903245,0.0009627342488140138,0.26487125210861884,0.13160789202740894,0.04827483236895414,1191.4161222235875,26719.492414493623
11.2625250501002,1028.003707709935,1027.2149059573228,0.3497389066146698,0.0010975952605807315,0.2651040646714182,0.1313599087700827,0.0483011916358814,1191.1932739578556,26750.377761606655
11.302605210420841,1028.4885070840924,1027.7131190117225,0.3506886912151344,0.0012398303648100122,0.26533269251094843,0.13111598377172004,0.048327936732433054,1190.9727238294213,26781.199797697653
11.342685370741483,1028.968796496446,1028.2032867183855,0.35163022400212024,0.0013894116381728849,0.2655581751711163,0.1308750788606888,0.04835507155423651,1190.753750007097,26811.958532870278
11.382765531062123,1029.4460499009765,1028.687575532344,0.35256631352692547,0.0015463460797893157,0.2657813844249519,0.13063632313003484,0.048382600199599245,1190.5357458387784,26842.654055156483
11.422845691382765,1029.9214688959771,1029.1677625583648,0.3534993279743472,0.001710670503146134,0.26600305444238864,0.13039898285229926,0.04841052692527407,1190.318199122735,26873.28651545917
11.462925851703407,1030.3960294677506,1029.6452992309648,0.35443127266443064,0.0018824471970793587,0.266223806023141,0.13016243731663787,0.048438856108887055,1190.100675468646,26903.856115106235
11.503006012024048,1030.8705213027579,1030.1213658655197,0.3553638525478165,0.002061760258066526,0.2664441661425535,0.12992615934196602,0.048467592217468755,1189.882804884898,26934.36309559869
11.543086172344688,1031.3455807113405,1030.5969179904405,0.35629852287194536,0.00224871250225346,0.2666645838008653,0.12968969947718914,0.04849673978140471,1189.664270907657,26964.80773019315
11.58316633266533,1031.8217181156535,1031.0727254598864,0.35723653050276544,0.002443422874664128,0.26688544295093064,0.12945267311484876,0.048526303373093646,1189.444801736747,26995.190317012522
11.623246492985972,1032.2993409422184,1031.5494053215045,0.35817894783239124,0.002646024282827902,0.26710707310694565,0.1292147499168447,0.04855628758962549,1189.224162962942,27025.511173426068
11.663326653306612,1032.7787726458523,1032.0274493357622,0.35912670077003117,0.0028566617915600193,0.26732975810183174,0.128975645085636,0.048586697038844634,1189.0021515646715,27055.770631481562
11.703406813627254,1033.2602684860396,1032.507246945523,0.3600805919792981,0.0030754911243639385,0.26755374335677334,0.12873511211833746,0.048617536328228184,1188.7785909241647,27085.96903420732
11.743486973947896,1033.7440285827365,1032.9891043937364,0.36104132026895386,0.003302677424692274,0.26777924194654945,0.12849293676084902,0.04864881005607749,1188.553326668206,27116.106732631968
11.783567134268537,1034.2302086965833,1033.4732605913327,0.36200949684782574,0.0035383942371463514,0.2680064396830412,0.12824893194030546,0.048680522804588344,1188.3262231809342,27146.184083395132
11.823647294589177,1034.718929108469,1033.9599002510588,0.36298565900488083,0.003782822674576048,0.268235499392531,0.12800293350079475,0.04871267913442682,1188.0971606683436,27176.201446843217
11.863727454909819,1035.2102819137592,1034.449164726601,0.3639702816604257,0.004036150742112394,0.26846656452646905,0.1277547966031507,0.048745283580495354,1187.8660326788495,27206.15918552254
11.90380761523046,1035.704336996072,1034.941160929854,0.36496378714577293,0.004298572793510877,0.26869976221766995,0.12750439267726404,0.04877834064862369,1187.6327440033483,27236.057662996853
11.943887775551103,1036.2011469029162,1035.435968641985,0.3659665535001328,0.00457028909889274,0.2689352058724401,0.12725160683675402,0.04881185481296358,1187.3972088929052,27265.897242928673
11.983967935871743,1036.7007508097065,1035.9336464849728,0.366978921520039,0.004851505506134774,0.26917299737239964,0.1269963356825267,0.04884583051390511,1187.1593495436896,27295.67828837458
12.024048096192384,1037.2031777284883,1036.434236778537,0.36800120075464826,0.005142433180855034,0.2694132289466153,0.12673848543484859,0.048880272156365215,1186.9190948077567,27325.401161252936
12.064128256513026,1037.7084490923205,1036.937769471878,0.3690336746070237,0.005443288412239391,0.2696559847642381,0.12647797034394448,0.048915184108327216,1186.6763790954158,27355.06622195021
12.104208416833666,1038.2165808248933,1037.4442653094902,0.3700766046749658,0.005754292473912177,0.2699013422895169,0.12621471133742265,0.04895057069953443,1186.4311414405945,27384.67382903775
12.144288577154308,1038.7275849869734,1037.9537383647594,0.3711302344435329,0.006075671530723468,0.2701493734343357,0.12594863486952246,0.048986436220260464,1186.1833247051973,27414.224339076194
12.18436873747495,1039.2414710761182,1038.4661980534133,0.3721947924239731,0.006407656583742647,0.27040014553795244,0.1256796719426265,0.049022784920095756,1185.9328749021897,27443.718106488766
12.224448897795591,1039.7582470433574,1038.9816507205578,0.3732704948194512,0.006750483446956442,0.27065372219911876,0.12540775727595896,0.049059621006703885,1185.6797406202006,27473.155483488215
12.264529058116231,1040.2779200798275,1039.5001008795543,0.3743575477860387,0.0071043927502094355,0.2709101639820166,0.12513282860011665,0.04909694864451223,1185.4238725349817,27502.536820045065
12.304609218436873,1040.800497217312,1040.0215521679147,0.37545614934752175,0.007469629963792424,0.27116952901433733,0.12485482605917624,0.04913477195331099,1185.165222995187,27531.862463887246
12.344689378757515,1041.32598577909,1040.5460080743612,0.37656649101419043,0.007846445440829686,0.2714318734931938,0.12457369170474462,0.04917309500674203,1184.903745671725,27561.13276052312
12.384769539078157,1041.8543937111235,1041.073472481898,0.3776887591486578,0.008235094474248748,0.27169725211232276,0.12428936906854011,0.0492119218306649,1184.6393952614608,27590.34805328152
12.424849699398797,1042.3857298183073,1041.6039500639388,0.3788231361156913,0.008635837365650694,0.27196571842213524,0.12400180280198779,0.0492512564013923,1184.3721272373425,27619.508683363823
12.464929859719438,1042.9200039260297,1042.1374465639688,0.3799698012478363,0.009048939503852053,0.27223732513253607,0.12371093837293573,0.04929110264379085,1184.1018976381304,27648.61498990409
12.50501002004008,1043.4572269836021,1042.6739689837266,0.38112893165413997,0.009474671451250643,0.27251212436703826,0.12341672181099432,0.04933146442924572,1183.8286628918797,27677.667310034227
12.54509018036072,1043.9974111229935,1043.2135257003058,0.38230070289542695,0.009913309036489768,0.27279016787548505,0.12311909949420474,0.04937234557349028,1183.5523796681389,27706.665978951805
12.585170340681362,1044.5405696837545,1043.756126528745,0.3834852895462435,0.010365133452164603,0.2730715072116517,0.12281801797078112,0.04941374983430291,1183.2730047545456,27735.611329988835
12.625250501002004,1045.0867172128715,1044.3017827434903,0.38468286566070836,0.010830431356542547,0.27335619388109633,0.12251342381056984,0.049455680909074984,1182.9904949541176,27764.50369468009
12.665330661322646,1045.6358694465355,1044.8505070694937,0.3858936051570142,0.011309494978447698,0.27364427946385106,0.12220526348164527,0.049498142432254165,1182.704807000074,27793.34340283016
12.705410821643286,1046.1880432793623,1045.4023136515113,0.38711768213316744,0.01180262222462526,0.27393581571586817,0.12189348324813383,0.049541137972668174,1182.4158974854756,27822.130782578508
12.745490981963927,1046.7432567254225,1045.9572180084012,0.38835527112469076,0.012310116789030802,0.27423085465255825,0.12157802908593733,0.04958467103073434,1182.1237228053824,27850.866160462137
12.785571142284569,1047.3015288744505,1046.5152369777297,0.38960654731340766,0.012832288263588806,0.274529448617251,0.12125884661352752,0.04962874503556007,1181.828239109564,27879.54986147562
12.825651302605209,1047.8628798458403,1047.076388654819,0.39087168669503847,0.013369452250053539,0.27483165033698026,0.12093588103541485,0.04967336334194006,1181.529402264103,27908.182209128398
12.86573146292585,1048.4273307423864,1047.6406923293841,0.3921508662121448,0.013921930472674022,0.27513751296762057,0.1206090770962664,0.04971852922725542,1181.2271678204772,27936.763525499282
12.905811623246493,1048.9949036052185,1048.2081684221366,0.39344426385793557,0.0144900508914201,0.27544709013008306,0.1202783790439656,0.04976424588828015,1180.9214909909424,27965.294131288312
12.945891783567134,1049.5656213709801,1048.778838423092,0.3947520587555689,0.015074147815570867,0.2757604359390076,0.11994373060018036,0.04981051643789996,1180.612326629206,27993.774345866004
12.985971943887774,1050.1395078319797,1049.3527248328385,0.39607443121683206,0.015674562017499644,0.27607760502514955,0.11960507493723863,0.04985734390174858,1180.29962921557,28022.20448732017
13.026052104208416,1050.7165875997814,1049.9298511076101,0.3974115627834452,0.016291640846516027,0.27639865255246604,0.11926235466031027,0.04990473121476634,1179.9833528458244,28050.584872500516
13.066132264529058,1051.2968860725275,1050.51024160872,0.3987636362536834,0.016925738342644825,0.2767236342307315,0.11891551179406276,0.04995268121768543,1179.6634512233295,28078.915817061134
13.1062124248497,1051.8804294061188,1051.0939215566586,0.4001308356965566,0.017577215350234963,0.2770526063243723,0.11856448777310198,0.0500011966534467,1179.3398776537902,28107.197635501132
13.14629258517034,1052.4672444892778,1051.6809169899952,0.40151334645538833,0.018246439631288577,0.27738562565808744,0.11820922343563171,0.05005028016355204,1179.012585042332,28135.430641203642
13.186372745490981,1053.0573589224384,1052.2712547290707,0.4029113551423117,0.018933785978425304,0.27772274961971904,0.11784965901986615,0.05009993428435678,1178.6815258925499,28163.61514647324
13.226452905811623,1053.6508010003454,1052.8649623443969,0.4043250496249187,0.01963963632738547,0.27806403616075176,0.11748573416281724,0.05015016144330589,1178.346652307264,28191.75146257213
13.266533066132263,1054.247599698211,1053.462068129581,0.4057546190060693,0.02036437986897611,0.2784095437947477,0.1171173879011501,0.050200963955118305,1178.0079159907675,28219.839899755185
13.306613226452905,1054.8477846612473,1054.062601078573,0.4072002535976697,0.021108413160360436,0.2787593315939608,0.11674455867386083,0.05025234401792304,1177.665268252385,28247.880767304
13.346693386773547,1055.451386197387,1054.666590866994,0.4086621448890692,0.021872140235585917,0.2791134591843291,0.11636718432658119,0.05030430370935114,1177.318660011216,28275.8743735601
13.386773547094188,1056.0584352729902,1055.2740678372854,0.41014048551059024,0.022655972715240405,0.2794719867389945,0.11598520211735622,0.05035684498258733,1176.96804180194,28303.821025957535
13.426853707414828,1056.668963511346,1055.8850629874291,0.4116354691925937,0.02346032991511641,0.2798349749704731,0.1155985487237756,0.050409969662384986,1176.6133637816063,28331.7210310549
13.46693386773547,1057.2830031937772,1056.499607962977,0.41314729072039225,0.024285638953755833,0.2802024851215646,0.11520716025136814,0.05046367944104863,1176.2545757373405,28359.574694566887
13.507014028056112,1057.900587263166,1057.1177350521496,0.41467614588524565,0.025132334858736515,0.28057457895506793,0.11481097224319275,0.050517975874387375,1175.8916270949162,28387.382321395573
13.547094188376754,1058.5217493297328,1057.7394771837628,0.4162222314316148,0.026000860671556818,0.2809513187423524,0.11440991969057726,0.05057286037764352,1175.5244669281615,28415.14421566149
13.587174348697394,1059.146523678908,1058.3648679277715,0.4177857450007954,0.02689166755095063,0.281332767250815,0.1140039370449741,0.05062833422140007,1175.153043969171,28442.860680734546
13.627254509018035,1059.7749452811493,1058.9939414982182,0.41936688507101755,0.027805214874461002,0.28171898773024495,0.11359295823091321,0.0506843985274714,1174.7773066193133,28470.53201926496
13.667334669338677,1060.4070498035724,1059.6267327584096,0.42096585089405825,0.028741970338097216,0.28211004389810307,0.1131769166600434,0.05074105426478072,1174.39720296102,28498.15853321415
13.707414829659317,1061.042873623278,1060.2632772281436,0.4225828424283952,0.02970241005387688,0.28250599992371966,0.11275574524626117,0.05079830224522878,1174.0126807703566,28525.740523885866
13.747494989979959,1061.6824538422557,1060.9036110928341,0.4242180602689014,0.030687018645044428,0.2829069204114028,0.11232937642193391,0.050856143119557676,1173.6236875303844,28553.278291957395
13.7875751503006,1062.3258283037774,1061.5477712143997,0.42587170557306775,0.03169628933874402,0.28331287038244746,0.11189774215522877,0.0509145773732143,1173.2301704453073,28580.77213751103
13.827655310621243,1062.9730356101836,1062.195795143787,0.4275439799837278,0.03273072405591315,0.2837239152560304,0.11146077396856319,0.05097360532221764,1172.8320764554246,28608.22236006589
13.867735470941883,1063.6241151419863,1062.847721135018,0.42923508554824785,0.03379083349814743,0.28414012082897244,0.11101840295819626,0.05103322710903421,1172.4293522528963,28635.629258610028
13.907815631262524,1064.2791070782187,1063.5035881606643,0.4309452246341375,0.03487713723127473,0.28456155325434707,0.11057055981498255,0.05109344269846636,1172.021944298338,28662.993131632964
13.947895791583166,1064.938052417965,1064.1634359286616,0.4326745998410306,0.035990163765360565,0.28498827901891327,0.11011717484631256,0.051154251873557835,1171.6097988382564,28690.314277158628
13.987975951903808,1065.6009930030189,1064.8273049003842,0.4344234139089851,0.03713045063085506,0.28542036491934863,0.1096581779992642,0.05121565423152126,1171.1928619233493,28717.59299277885
14.028056112224448,1066.2679715416102,1065.4952363099105,0.4361918696230416,0.03829854445057716,0.285857878037258,0.1091934988849925,0.05127764917969229,1170.7710794276777,28744.82957568727
14.06813627254509,1066.939031633164,1066.167272184418,0.43798016971398723,0.039495001007200436,0.2863008857129306,0.10872306680438396,0.051340235931515286,1170.3443970687406,28772.024322713907
14.108216432865731,1067.6142177940371,1066.843455365655,0.43978851675526187,0.04072038530591225,0.28674945551782255,0.10824681077500327,0.05140341350256549,1169.91276042846,28799.177530360234
14.148296593186371,1068.2935754842065,1067.523829532438,0.4416171130559523,0.04197527163189417,0.2872036552257363,0.10776465955935949,0.05146718070661223,1169.4761149751023,28826.289494834917
14.188376753507013,1068.9771511348572,1068.2084392241284,0.4434661605498154,0.04326024360224981,0.28766355278267347,0.10727654169451936,0.051531536151728494,1169.0344060861487,28853.360512090174
14.228456913827655,1069.6649921768496,1068.897329865055,0.44533586068027275,0.04457589421199208,0.2881292162753328,0.10678238552309555,0.051596478236451714,1168.5875790721423,28880.390877858856
14.268537074148297,1070.3571470700194,1069.5905477898348,0.4472264142813263,0.04592282587368597,0.2886007138982319,0.10628211922563612,0.05166200514600093,1168.1355792015227,28907.380887692165
14.308617234468937,1071.0536653332858,1070.2881402695657,0.4491380214543396,0.047301650450323654,0.2890781139194252,0.10577567085444213,0.051728114848555294,1167.678351726469,28934.33083699813
14.348697394789578,1071.7545975755293,1070.9901555388549,0.4510708814406383,0.048712989280992255,0.2895614846447961,0.10526296836883924,0.051794805091599255,1167.2158419097748,28961.241021080867
14.38877755511022,1072.459995527208,1071.6966428236472,0.4530251924898827,0.05015747319887461,0.2900508943808999,0.1047439396719283,0.051862073398339356,1166.747995052766,28988.111735180533
14.428857715430862,1073.1699120726787,1072.407652369829,0.4550011517241708,0.051635742541107144,0.290546411396337,0.10421851264883923,0.0519299170641979,1166.2747565242842,29014.943274514124
14.468937875751502,1073.884401283183,1073.12323547257,0.4569989549978319,0.05314844715000082,0.29104810388163244,0.10368661520651155,0.05199833315338847,1165.7960717907515,29041.73593431706
14.509018036072144,1074.6035184504653,1073.8434445063747,0.4590187967528773,0.05469624636510691,0.29155603990760665,0.10314817531502388,0.05206731849557858,1165.311886447333,29068.490009885587
14.549098196392785,1075.327320120982,1074.5683329558046,0.46106086987008,0.056279809005582916,0.2920702873822161,0.10260312105049335,0.05213686968264463,1164.8221462502147,29095.20579662003
14.589178356713425,1076.055864130655,1075.2979554468448,0.46312536551565325,0.05789981334231869,0.292590914005847,0.10205138063956483,0.052206983065524,1164.3267971500115,29121.883590068875
14.629258517034067,1076.789209640132,1076.0323677788738,0.4652124729835134,0.05955694705924273,0.29311798722504967,0.10149288250550821,0.05227765475116924,1163.825785326319,29148.523685973752
14.669338677354709,1077.5274171705012,1076.7716269571952,0.4673223795331052,0.06125190720321191,0.293651574184695,0.10092755531594146,0.05234888059960934,1163.319057223429,29175.12638031523
14.70941883767535,1078.2705486394061,1077.5157912260977,0.46945527022278516,0.06298540012186968,0.2941917416785458,0.10035532803219399,0.05242065622112292,1162.8065595872097,29201.69196935951
14.74949899799599,1079.0186673975134,1078.2649201023924,0.47161132773875714,0.06475814138883497,0.29473855609822974,0.09977612996032495,0.05249297697352795,1162.2882395031836,29228.220749706066
14.789579158316633,1079.7718382652613,1079.0190744093834,0.473790732219561,0.06657085571556497,0.2952920833806062,0.09918989080380816,0.05256583795959281,1161.7640444357912,29254.71301833606
14.829659318637274,1080.5301275698362,1079.7783163112183,0.47599366107612545,0.06842427684921144,0.29585238895352056,0.09859654071789396,0.05263923402457284,1161.2339222688686,29281.169072661713
14.869739478957916,1081.2936031823015,1080.5427093475662,0.4782202888073979,0.07031914745577325,0.2964195376799428,0.09799601036565647,0.052713159753877054,1160.6978213473421,29307.589210576574
14.909819639278556,1082.062334554805,1081.312318468559,0.48047078681157396,0.07225621898782295,0.29699359380048573,0.09738823097573232,0.052787609470868975,1160.1556905201503,29333.973730506623
14.949899799599198,1082.8363927577889,1082.0872100699378,0.4827453231929546,0.07423625153607098,0.29757462087430603,0.09677313440175546,0.05286257723480546,1159.6074791843962,29360.32293146225
14.98997995991984,1083.6158505171115,1082.867452028332,0.4850440625644695,0.076260013663993,0.2981626817183876,0.09615065318348966,0.0529380568389177,1159.0531373307456,29386.637113091183
15.03006012024048,1084.4007822509932,1083.6531137365932,0.48736716584591155,0.07832828222474447,0.2987578383452154,0.09552072060965756,0.05301404180863788,1158.492615590066,29412.916575732153
15.070140280561121,1085.191264106688,1084.44426613911,0.4897147900579306,0.08044184215956435,0.29936015189884485,0.09488327078246486,0.05309052539997458,1157.9258652813166,29439.161620469473
15.110220440881763,1085.987373996779,1085.240981767016,0.4920870881118478,0.08260148627684107,0.29996968258937773,0.09423823868381383,0.05316750059804037,1157.3528384606923,29465.372549188407
15.150300601202405,1086.789191634984,1086.043334773198,0.49448420859535847,0.08480801501100114,0.3005864896258581,0.09358556024319833,0.053244960115734145,1156.773487972016,29491.549664631355
15.190380761523045,1087.5967985713548,1086.8514009670075,0.4969062955541994,0.08706223616035884,0.3012106311476027,0.09292517240727012,0.0533228963925812,1156.1877674983912,29517.69327045478
15.230460921843687,1088.4102782267498,1087.6652578485698,0.49935348826986825,0.08936496460305042,0.3018421641539854,0.09225701321106287,0.05340130159373301,1155.5956316150964,29543.80367128692
15.270541082164328,1089.2297159264401,1088.4849846425782,0.5018259210334831,0.091717021990157,0.30248114443269675,0.09158102185085858,0.05348016760912903,1154.9970358437356,29569.881172786147
15.31062124248497,1090.0551989327184,1089.310662331459,0.5043237229158918,0.09411923641510782,0.3031276264865041,0.09089713875867701,0.05355948605282204,1154.3919367076278,29595.926081700036
15.35070140280561,1090.886816476356,1090.142373687774,0.506847017534136,0.09657244205843737,0.3037816634585381,0.09020530567836665,0.05363924826246854,1153.7802917884321,29621.938705925062
15.390781563126252,1091.7246597867575,1090.9802033057317,0.5093959228143974,0.09907747880696119,0.3044433070561379,0.0895054657432726,0.05371944529898515,1153.162059784004,29647.919354566857
15.430861723446894,1092.5688221206499,1091.8242376316668,0.5119705507515434,0.10163519184641856,0.305112607473288,0.08879756355545453,0.053800067946371585,1152.5372005674678,29673.868338000975
15.470941883767534,1093.4193987891324,1092.6745649933298,0.5145710071654348,0.10424643122661857,0.3057896133116856,0.08808154526642045,0.0538811067117013,1151.9056752474967,29699.785967934196
15.511022044088175,1094.276487182904,1093.5312756278392,0.517197391454123,0.10691205139813006,0.3064743715004783,0.08735735865934544,0.053962551825278836,1151.2674462297846,29725.67255746614
15.551102204408817,1095.1401867954933,1094.3944617081231,0.5198497963441023,0.10963291071953975,0.30716692721471456,0.0866249532327373,0.054044393240964,1150.6224772796963,29751.52842115128
15.591182364729459,1096.0105992442768,1095.264217367679,0.5225283076377849,0.1124098709343039,0.30786732379255555,0.08588428028550857,0.054126620636661855,1149.97073358608,29777.353875061206
15.631262525050099,1096.8878282890964,1096.140638723466,0.5252330039583731,0.11524379661621532,0.30857560265129824,0.08513529300341136,0.054209223414977456,1149.3121818262175,29803.14923684706
15.67134268537074,1097.7719798482522,1097.0238238967395,0.5279639564923174,0.11813555458251294,0.30929180320226407,0.08437794654678749,0.05429219070403374,1148.6467902318993,29828.914825802072
15.711422845691382,1098.6631620116507,1097.9138730316258,0.5307212287295513,0.12108601327366367,0.3100159627646095,0.08361219813958475,0.054375511358450375,1147.9745286565924,29854.650962924105
15.751503006012024,1099.5614850508814,1098.810888311226,0.5335048762017124,0.1240960420988597,0.3107481164781206,0.08283800715958455,0.05445917396048155,1147.2953686436847,29880.357970978086
15.791583166332664,1100.467061425977,1099.714973971035,0.536314946218557,0.12716651074628338,0.31148829721505417,0.08205533522978467,0.0545431668213095,1146.60928349577,29906.03617455826
15.831663326653306,1101.3800057886165,1100.6262363094393,0.5391514776027961,0.13029828845721161,0.31223653549109365,0.08126414631087693,0.054627477982490694,1145.9162483449506,29931.68590015009
15.871743486973948,1102.3004349815083,1101.5447836950696,0.5420145004235705,0.1334922432630494,0.3129928593754889,0.08046440679475732,0.054712095217550986,1145.2162402241263,29957.30747619177
15.911823647294588,1103.2284680336986,1102.4707265707505,0.54490403572882,0.13674924118441448,0.31375729440045613,0.07965608559899996,0.05479700603372573,1144.50923813923,29982.90123313514
15.95190380761523,1104.164216320688,1103.4041543293158,0.5478200282607131,0.14007025596758851,0.31452984393888944,0.07883917369233646,0.0548821981790432,1143.7952360328034,30008.468707210828
15.991983967935871,1105.1076985047018,1104.3449124341178,0.5507616002844318,0.14345758365489292,0.31531027146451923,0.07801390078894874,0.05496766540572045,1143.0743866032724,30034.02590256367
16.03206412825651,1106.0590694266937,1105.2931189390479,0.5537284530961506,0.14691251370862934,0.31609850866213746,0.07718032941626099,0.055053397079584475,1142.346732010047,30059.57796476804
16.072144288577153,1107.0185230347483,1106.2489831822954,0.5567205481459498,0.1504358850816605,0.3168945629495535,0.0763384467584526,0.05513938034145885,1141.6122646666383,30085.125163544217
16.112224448897795,1107.986247464516,1107.2127051533923,0.559737836965617,0.15402853421743903,0.3176984388266887,0.07548824289009755,0.05522560210820009,1140.870979146916,30110.667774436464
16.152304609218437,1108.9624261579625,1108.1844771248382,0.562780260970541,0.15769129366893606,0.31851013781050014,0.07462971085061261,0.05531204907347564,1140.1228722549668,30136.206078595904
16.19238476953908,1109.9472388122786,1109.164485044073,0.5658477512590357,0.16142499072815555,0.3193296583679682,0.07376284672031783,0.05539870770884571,1139.3679430950808,30161.740362602774
16.23246492985972,1110.9408621816672,1110.1529097184336,0.5689402284099526,0.16523044605860746,0.32015699584754087,0.0728876496978046,0.055485564265108284,1138.6061931418612,30187.27091832197
16.27254509018036,1111.9434707514772,1111.149927821127,0.5720576022793461,0.16910847232404025,0.320992142409377,0.07200412217834476,0.055572604773871354,1137.8376263104449,30212.798042786708
16.312625250501,1112.9552373014028,1112.1557127422725,0.5751997717968688,0.17305987280756366,0.3218350869546964,0.07111226983310229,0.05565981504932005,1137.0622490268306,30238.322038105776
16.352705410821642,1113.976333372037,1113.170435305635,0.5783666247624986,0.17708544001601859,0.32268581505450344,0.07021210168893798,0.055747180690149965,1136.280070298303,30263.84321139045
16.392785571142284,1115.006929647037,1114.1942643687366,0.5815580376441692,0.18118595426515272,0.3235443088779378,0.06930363020860862,0.055834687081641264,1135.4911017839327,30289.361874697654
16.432865731462925,1116.0471962613688,1115.2273673214859,0.5847738753767843,0.18536218224171902,0.3244105471204664,0.0683868713711915,0.055922319397849835,1134.695357865148,30314.878344986457
16.472945891783567,1117.0973030445707,1116.26991049628,0.5880139911630717,0.18961487553916986,0.32528450493211686,0.06746184475257523,0.05601006260389408,1133.892855716349,30340.392944085284
16.51302605210421,1118.157419706684,1117.322059500672,0.5912782262766981,0.19394476916412123,0.3261661538459365,0.06652857360586838,0.056097901458318104,1133.0836153755536,30365.905998667542
16.55310621242485,1119.2277159733464,1118.3839794820603,0.5945664098680274,0.1983525800112131,0.32705546170684796,0.06558708494158855,0.05618582051551314,1132.2676598150415,30391.417840233727
16.59318637274549,1120.3083616755923,1119.4558353324878,0.5978783587728848,0.20283900530441631,0.3279523926010552,0.06463740960750308,0.05627380412818056,1131.4450150119785,30416.928805098225
16.63326653306613,1121.3995267990704,1120.537791840428,0.6012138773246612,0.2074047210032352,0.328856906786153,0.0636795823679976,0.056361836449821054,1130.6157100189805,30442.43923437925
16.673346693386772,1122.501381496663,1121.6300137954256,0.6045727571700686,0.21205038017261757,0.32976896062207367,0.06271364198285642,0.05644990143723512,1129.779777034593,30467.949473990506
16.713426853707414,1123.6140960679022,1122.7326660505646,0.6079547770888479,0.2167766113157556,0.33068850650300813,0.06173963128533983,0.05653798285302159,1128.9372514736406,30493.45987463335
16.753507014028056,1124.7378409080313,1123.8459135469975,0.6113597028177081,0.2215840166692851,0.3316154927904262,0.06075759725944877,0.05662606426806077,1128.0881720374164,30518.97079178834
16.793587174348698,1125.872786429127,1124.9699213041106,0.6147872868787588,0.2264731704607192,0.3325498637473198,0.059767591116270065,0.05671412906397021,1127.2325807836548,30544.48258570511
16.83366733466934,1127.0191029553089,1126.1048543783475,0.618237268412697,0.23144461712828693,0.3334915594737872,0.058769668369293926,0.0568021604355214,1126.3705231962563,30569.995621389655
16.873747494989978,1128.1769605937384,1127.2508777932496,0.6217093730170047,0.23649886950368645,0.3344405158440829,0.057763888908594005,0.05689014139300642,1125.502048254695,30595.51026858815
16.91382765531062,1129.3465290828324,1128.4081564428534,0.6252033125893727,0.2416364069585019,0.33539666444523925,0.056750317073769534,0.05697805476454366,1124.6272085030678,30621.02690176656
16.95390781563126,1130.5279776188781,1129.5768549702511,0.6287187851765805,0.24685767351538065,0.33635993251737784,0.05572902172554341,0.05706588319831288,1123.7460601187277,30646.545900085155
16.993987975951903,1131.721474662038,1130.7571376228218,0.6322554748290534,0.2521630759253789,0.3373302428958237,0.05470007631590704,0.05715360916470946,1122.8586629804324,30672.067647367458
17.034068136272545,1132.9271877225694,1131.9491680853905,0.6358130514613064,0.25755298171316693,0.3383075139551358,0.05366355895670521,0.057241214958409316,1121.9650807359492,30697.59253206268
17.074148296593187,1134.1452831279319,1133.15310929237,0.6393911707184787,0.26302771719209656,0.33929165955516855,0.05261955248655077,0.0573286827003352,1121.0653808690452,30723.12094720126
17.11422845691383,1135.3759257713518,1134.3691232197502,0.6429894738491556,0.26858756545142776,0.34028258898927755,0.05156814453595742,0.05741599433951636,1120.1596347657885,30748.653290342703
17.154308617234467,1136.6192788422968,1135.5973706576629,0.6466075875846736,0.27423276431830934,0.3412802069347886,0.05050942759057667,0.057503131654833596,1119.2479177800922,30774.1899635153
17.19438877755511,1137.8755035392567,1136.8380109641164,0.6502451240250955,0.2799635042974057,0.3422844134058456,0.049443499052421604,0.057590076256642364,1118.330309298405,30799.73137314701
17.23446893787575,1139.1447587651307,1138.0912018003987,0.653901680532034,0.2857799264913424,0.34329510370875777,0.048370461298959645,0.05767680958826658,1117.406892803485,30825.27792998703
17.274549098196392,1140.4272008054968,1139.3570988485544,0.6575768396285036,0.2916821205054209,0.34431216839996787,0.04729042173995179,0.05776331292735689,1116.4777559371557,30850.83004901756
17.314629258517034,1141.7229829899738,1140.63585551128,0.6612701689059899,0.2976701223404109,0.3453354932467712,0.04620349287190747,0.05784956738710713,1115.5429905619526,30876.388149355065
17.354709418837675,1143.0322553368694,1141.9276225945232,0.664981220938906,0.3037439122774258,0.34636495919091226,0.04510979233002663,0.057935553917323315,1114.6026928215704,30901.952654140754
17.394789579158317,1144.355164181264,1143.2325479730223,0.6687095332065933,0.30990341275913463,0.34740044231518813,0.044009442937499074,0.05802125330533961,1113.6569632000135,30927.523990419515
17.43486973947896,1145.6918517866748,1144.5507762389916,0.6724546280230459,0.3161484862718682,0.34844181381319506,0.04290257275202162,0.05810664617677681,1112.7059065793428,30953.102589007034
17.474949899799597,1147.0424559404182,1145.8824483341293,0.6762160124745219,0.3224789332334024,0.3494889399623577,0.041789315109391205,0.058191712996138574,1111.7496322959205,30978.68888434441
17.51503006012024,1148.4071095327838,1147.227701165109,0.6799931783652112,0.3288944898914259,0.3505416821003858,0.040669808664028174,0.05827643406724172,1110.7882541950396,31004.28331433989
17.55511022044088,1149.7859401201204,1148.586667202688,0.6837856021711216,0.3353948262378952,0.3515998966053021,0.03954419742628107,0.05836078953347708,1109.8218906838345,31029.886320197238
17.595190380761522,1151.1790694719334,1149.9594740645696,0.6875927450023526,0.3419795439446837,0.35266343487919727,0.03841263079635752,0.058444759377897684,1108.8506647823483,31055.49834623019
17.635270541082164,1152.5866131020816,1151.3462440821397,0.6914140525739205,0.3486481743260771,0.35373214333586356,0.037275263594724835,0.058528323423132016,1107.8747041726597,31081.11983966254
17.675350701402806,1154.0086797841623,1152.7470938511929,0.6952489551853013,0.3554001763338112,0.35480586339246917,0.03613225608881845,0.05861146133111998,1106.8941412459328,31106.75125041348
17.715430861723448,1155.445371051171,1154.1621337667639,0.6990968677088548,0.36223493459044576,0.35588443146543597,0.03498377401589415,0.05869415260266997,1105.9091131472887,31132.393030867588
17.755511022044086,1156.896780679507,1155.5914675421664,0.7029571895872997,0.3691517574669411,0.35696767897068465,0.03382998860185733,0.05877637657683591,1104.9197618183741,31158.04563562908
17.795591182364728,1158.3629941574247,1157.0351917123644,0.7068293048404287,0.37614987521048865,0.3580554323284298,0.032671076575889364,0.05885811243011386,1103.9262340375,31183.709521259916
17.83567134268537,1159.8440881379825,1158.4933951217654,0.7107125820812147,0.38322843812842167,0.35914751297268516,0.03150722018070794,0.05893933917545743,1102.9286814572395,31209.385146001136
17.87575150300601,1161.3401298765687,1159.9661583965417,0.714606374541485,0.3903865148341552,0.3602437373656613,0.03033860717828315,0.05902003566111288,1101.9272606393665,31235.07296947718
17.915831663326653,1162.8511766530619,1161.453553401575,0.7185100201073458,0.39762309056102524,0.36134391701723023,0.029165430850834333,0.059100180569274186,1100.922133087014,31260.773452382633
17.955911823647295,1164.3772751786912,1162.9556426821152,0.7224228413645313,0.40493706554979975,0.3624478585096369,0.02798788999693095,0.059179752414559916,1099.913465273933,31286.48705615096
17.995991983967937,1165.9184609876377,1164.4724788902417,0.7263441456538643,0.41232725351549604,0.3635553635276347,0.026806188922522782,0.05925872954231354,1098.901428670745,31312.214242604787
18.036072144288575,1167.4747578134386,1166.0041041961988,0.7302732251370059,0.419792380198967,0.3646662288942197,0.02562053742672631,0.0593370901267299,1097.8861997680624,31337.955473587317
18.076152304609217,1169.0461769502303,1167.5505496846827,0.7342093568726874,0.4273310820085149,0.36578024661213865,0.024431150782196563,0.05941481216881106,1096.867960096379,31363.711210574467
18.11623246492986,1170.6327165988732,1169.1118347361319,0.7381518029036044,0.43494190475652794,0.3668972039113364,0.023238249709920594,0.05949187349415529,1095.8468962426134,31389.481914267188
18.1563126252505,1172.2343611980068,1170.6879663930818,0.7420998103541682,0.4426233024958809,0.3680168833025047,0.02204206034827083,0.05956825175058411,1094.823199863206,31415.268044163677
18.196392785571142,1173.8510807400812,1172.2789387116202,0.746052611539296,0.4503736364604599,0.3691390626368833,0.020842814216170142,0.05964392440561283,1093.7970676936636,31441.070058110898
18.236472945891784,1175.4828300724387,1173.8847320979914,0.7500094240844426,0.4581911741139597,0.37026351517245654,0.019640748170221742,0.05971886874377108,1092.7687015544561,31466.888411835178
18.276553106212425,1177.1295481835475,1175.5053126303858,0.7539694510570685,0.46607408831068226,0.37139000964666713,0.018436104355674526,0.05979306186378161,1091.7383083531593,31492.723558451242
18.316633266533067,1178.791157474522,1177.1406313658708,0.7579318811097174,0.47402045657153513,0.37251831035572286,0.017229130151131446,0.059866480675606536,1090.7061000827487,31518.57594794945
18.356713426853705,1180.4675630162712,1178.790623632132,0.7618958886348962,0.48202826047816566,0.3736481772404213,0.016020078106999822,0.05993910189737781,1089.6722938158985,31544.4460266607
18.396793587174347,1182.158651793455,1180.4552083019967,0.7658606339319279,0.4900953851876909,0.3747793659776668,0.014809205878157658,0.06001090205225623,1088.637111694921,31570.334236698665
18.43687374749499,1183.8642919407025,1182.134287039332,0.7698252633858725,0.4982196190699559,0.37591162807284983,0.013596776153819622,0.0600818574654123,1087.6007809157331,31596.241015379037
18.47695390781563,1185.5843319999144,1183.827743452731,0.7737889096582266,0.5063986534683655,0.3770447109262533,0.012383056601354064,0.06015194426213966,1086.5635336973937,31622.16679461563
18.517034068136272,1187.318600357544,1185.5354417995404,0.7777506918869725,0.5146300825821103,0.3781783577233794,0.011168319917875908,0.06022113837269303,1085.5256071902681,31648.112000294892
18.557114228456914,1189.0669057571338,1187.257223206758,0.7817097158816014,0.5229114034509272,0.3793123062989243,0.009952844520960544,0.06028941557551312,1084.4872430571254,31674.077051638345
18.597194388777556,1190.8290440085814,1188.9928876927318,0.7856650742308957,0.5312400159263222,0.38044628209408965,0.008736918926800343,0.06035675176083183,1083.4486852013756,31700.062360609292
18.637274549098194,1192.6048405851666,1190.7420936448625,0.7896158458510609,0.5396132219310401,0.38157995683826884,0.007520867526390191,0.06042312447445576,1082.4101667669545,31726.068331687333
18.677354709418836,1194.3944032566865,1192.503772010292,0.7935610922315155,0.5480282197807868,0.3827127062738988,0.006305201763768959,0.06048852197994555,1081.3718342251386,31752.09536388996
18.717434869739478,1196.199420297866,1194.272509144977,0.7974993135208461,0.5564809654666748,0.3838420381588789,0.005091667804659115,0.0605529877718217,1080.3334386647323,31778.147339336174
18.75751503006012,1198.0305462326626,1196.0183646598987,0.8014252500371695,0.5649594097340134,0.3849547234545541,0.0038891725995022024,0.060616869936356114,1079.2926405784901,31804.252289116244
18.79759519038076,1199.9512945684444,1197.6132724375154,0.8053360877246146,0.5734570218513424,0.3859943647977492,0.0027331171183941987,0.0606822320276637,1078.232451830077,31830.417243482436
18.837675350701403,1202.181422576152,1198.8096312993061,0.8092271870301727,0.5819668581148427,0.3868181397008856,0.001712734317103616,0.06075442133069292,1077.108871773575,31856.646323109813
18.877755511022045,1205.1072476405207,1199.678515171043,0.8130905447400598,0.5904895105375295,0.38730580570982726,0.0009034197356682373,0.06083795540028011,1075.8860303722659,31882.952077771628
18.917835671342683,1209.159160751468,1200.5886976857373,0.8169173852399204,0.599050407676585,0.3873982205965,0.00034241968665300567,0.06093506277705058,1074.5474196247308,31909.36007056799
18.957915831663325,1214.7892798546309,1201.9612703021076,0.8206990500270197,0.6077026572886018,0.38704174029382704,6.326882053651e-05,0.06104776450952703,1073.0778966692635,31935.910233150116
18.997995991983966,1222.3295245783613,1204.6572699057972,0.8244289661722177,0.6165324239305184,0.3863381992943503,2.5656574812649486e-06,0.06117218420763622,1071.5106979138538,31962.657083871596
19.03807615230461,1231.7315504350931,1209.6067912880353,0.8281075388112726,0.6256673519391841,0.3855441313613338,1.199674836754426e-08,0.06129853553127485,1069.9250147233136,31989.66393033888
19.07815631262525,1242.744525540905,1216.7905283446164,0.8317398850674418,0.6352480653782676,0.3847463289826946,6.9507144710464246e-12,0.061423402729932054,1068.3439509543425,32016.991260124498
19.118236472945892,1255.1375070331876,1225.8834602971535,0.8353307077111214,0.6453991194173136,0.3839462204999753,6.417843226422732e-16,0.06154656090246507,1066.7638708448442,32044.691894971973
19.158316633266534,1268.7184697566838,1236.6013612776921,0.8388835170988227,0.6562266070981327,0.3831415968087118,-1.330411863916123e-19,0.0616678792841255,1065.1807324974725,32072.811714485306
19.198396793587175,1283.3283140323601,1248.7083358169707,0.8424008242255978,0.6678193655963469,0.3823306055284291,-1.0159255373776797e-19,0.06178716964152339,1063.5912699150451,32101.390867954582
19.238476953907814,1298.8353731823884,1262.0093509710707,0.845884336566289,0.6802489519210981,0.38151173646542935,-1.3183794215636379e-19,0.06190418796068866,1061.9929252923462,32130.46478847982
19.278557114228455,1315.130544126952,1276.3435815511082,0.8493351272876833,0.6935687957669098,0.38068380369863297,-1.7338881257751714e-19,0.06201863679086499,1060.3838057539429,32160.065024946307
19.318637274549097,1332.1229986183532,1291.5785721105335,0.8527537777305484,0.7078129085698077,0.3798459387196007,-1.449079945999521e-19,0.06213016725106511,1058.762661225461,32190.219917208262
19.35871743486974,1349.7364259380408,1307.6051374613542,0.8561404949195236,0.7229944053104755,0.3789975910178793,-1.2837559664106142e-19,0.062238380604541975,1057.1288763902783,32220.95513586336
19.39879759519038,1367.9057553669963,1324.3329227504803,0.8594952067929098,0.7391040044776408,0.3781385334899381,-1.4128994826520707e-19,0.062342829401773235,1055.4824716107903,32252.29410470849
19.438877755511022,1386.5743072210087,1341.686548214291,0.8628176382054684,0.7561085993456801,0.3772688709047565,-1.0257886381968045e-19,0.06244301823341578,1053.8241093531753,32284.25832126326
19.478957915831664,1405.6913229699276,1359.6022699889331,0.8661073707554187,0.7739499345544116,0.3763890504099253,-1.3562093078974587e-19,0.06253840413779282,1052.1551041131238,32316.867588507608
19.519038076152302,1425.209826893563,1378.0250949727097,0.8693638892749594,0.7925433733331267,0.37549987371753457,-1.2442605109212021e-19,0.06262839668697424,1050.4774351088095,32350.14016908518
19.559118236472944,1445.0847733137323,1396.906293709221,0.8725866175069558,0.8117767005469406,0.37460251117872173,-5.895225065990482e-20,0.06271235774179028,1048.793762101372,32384.092871574445
19.599198396793586,1465.2714343571372,1416.201260232187,0.8757749451372199,0.831508871648706,0.3736985184726649,-2.822668207635484e-20,0.06278960082462443,1047.107445682784,32418.741076936923
19.639278557114228,1485.72398308625,1435.867671875594,0.8789282480042617,0.8515685812597875,0.37278985717532687,-3.82444380886884e-20,0.06285939000886386,1045.4225743753932,32454.0987118453
19.67935871743487,1506.3942249665151,1455.863905581869,0.8820459029907997,0.8717524756858435,0.37187892118542415,-2.3731579089027524e-20,0.06292093815563024,1043.7440021927093,32490.17817419229
19.71943887775551,1527.23042549744,1476.147670765287,0.8851272988276189,0.8918227499347359,0.3709685721472722,-2.980377663354753e-20,0.06297340421818227,1042.0774024234165,32526.99021459586
19.759519038076153,1548.1761702576448,1496.6748232580992,0.8881718438187052,0.9115037096228505,0.3700621891773354,-6.057396976308591e-20,0.06301588912983486,1040.4293473278992,32564.543775999635
19.79959919839679,1569.1691686752883,1517.3983324424107,0.8911789713363092,0.9304765493771497,0.36916374259183815,-9.785051270875088e-20,0.06304742937361485,1038.8074313850693,32602.845791236345
19.839679358717433,1590.139858229349,1538.2673907427632,0.8941481438562255,0.9483708753186474,0.3682779109442063,-5.817852090469637e-20,0.063066986405964,1037.2204731224554,32641.900935104233
19.879759519038075,1611.0095381845463,1559.2267034064653,0.8970788563652631,0.9647497380003124,0.36741028399918463,-3.561379849168432e-20,0.0630734278337346,1035.678872770488,32681.711321793893
19.919839679358716,1631.6874251214983,1580.2161675334894,0.899970640362091,0.9790799652950939,0.3665677600717191,4.3419713400802815e-21,0.06306548977250326,1034.195322150203,32722.27612702328
19.95991983967936,1652.0649250617694,1601.1719208700895,0.9028230711224059,0.9906617190535827,0.3657594821336323,8.603447690870468e-21,0.06304168647173593,1032.786490918528,32763.59108650161
20.0,1671.9999999999998,1622.035316959503,0.9056357876130533,0.9983894330559543,0.365,-4.6058166100818704e-24,0.063,1031.478750118903,32805.64773319889
