z,T,t,fs,fl,x,y,w,rhob,p
0.0,634.4167815152056,505.0,0.0,0.0,0.16090765990698105,0.23690028940630647,0.04773140062874489,1268.0,14330.0
0.05730659025787966,678.9020761164257,573.1142833711498,0.0002110384493042514,0.0,0.16097313093679866,0.23683481836597536,0.04773140061211947,1267.9543650365956,14397.256358827324
0.11461318051575932,714.9757038489286,627.960393269668,0.0005742426391714498,0.0,0.16108580849106335,0.23672214060306318,0.04773140028217754,1267.8758255814498,14470.747772740222
0.17191977077363899,744.4782976281917,672.5678613839622,0.0010962190397731232,0.0,0.16124774036292105,0.23656020706754954,0.04773139765137685,1267.762951960348,14549.261622296295
0.22922636103151864,768.7671372493352,709.1262680706141,0.0017709904938964988,0.0,0.16145706615921915,0.23635087378297234,0.04773138580988432,1267.6170328804608,14631.79175765138
0.2865329512893983,788.8689262511392,739.2667731809256,0.0025867765419169777,0.0,0.16171011759854598,0.23609779925790933,0.04773134930356227,1267.4406072644874,14717.505492166252
0.34383954154727797,805.5769587539762,764.234726164179,0.0035298549578847045,0.0,0.1620026154912047,0.2358052467795629,0.047731262985244265,1267.2366286014642,14805.714010642412
0.4011461318051576,819.5137322604052,784.9980059608616,0.004586519614444692,0.0,0.16233027930427682,0.23547747639377284,0.04773109445809138,1267.0080429193658,14895.848171854466
0.4584527220630373,831.1741305435693,802.3201124989064,0.005743998792707916,0.0,0.16268911647577425,0.2351184587578055,0.04773080908371545,1266.7575929590537,14987.438018535242
0.515759312320917,840.9559640808845,816.8109020057833,0.0069908095780207334,0.0,0.16307553701255348,0.23473176388169126,0.04773037526279607,1266.4877444386113,15080.095560131298
0.5730659025787966,849.1815293551201,828.9618895389218,0.008316841231405426,0.0,0.1634863827257726,0.23432053431943425,0.04772976827254316,1266.2006701317507,15173.500956091886
0.6303724928366763,856.1138584808183,839.1724893428335,0.009713298825253201,0.0,0.1639189112401724,0.23388750224501498,0.047728971982878655,1265.8982629981974,15267.390774686743
0.6876790830945559,861.9689524436216,847.7695279105749,0.011173055112523103,0.0,0.16437090503086393,0.23343488033871432,0.04772797873472515,1265.582060028752,15361.548309867747
0.7449856733524356,866.9278279064596,855.0257943489644,0.012715346637374416,0.0,0.16484833185819026,0.2329567005405311,0.047726788056217676,1265.2479012536487,15455.795981192776
0.8022922636103152,871.1348331813172,861.1587367706904,0.014311900564897785,0.0,0.1653424253095285,0.23246173244559834,0.047725404981886474,1264.9019031542543,15549.988410338692
0.8595988538681949,874.7123686701173,866.3521755366252,0.01595754869737378,0.0,0.16585159017168855,0.23195157687791917,0.047723838385974146,1264.5451881732881,15644.006605492581
0.9169054441260746,877.7623516115276,870.7588909101047,0.017648278597404525,0.0,0.16637459180068856,0.23142747555271073,0.04772209945178456,1264.1786300996953,15737.75379678906
0.9742120343839542,880.3698478413348,874.506205955837,0.01938067720451105,0.0,0.16691038246981252,0.23089048398067416,0.047720200489317285,1263.8029737319036,15831.15157829975
1.031518624641834,882.6059654396066,877.7004101949676,0.02115184609637219,0.0,0.16745807432976567,0.23034149796843442,0.04771815408229412,1263.4188527334506,15924.136800383916
1.0888252148997135,884.530217492332,880.4303573901097,0.022959327960485665,0.0,0.16801691607979483,0.2297812765744938,0.04771597249848015,1263.0268052089943,16016.658978331006
1.1461318051575933,886.1925030081211,882.7704706258224,0.02480104136584364,0.0,0.16858627240670848,0.22921046243524737,0.04771366731818826,1262.6272876053026,16108.678086805017
1.2034383954154728,887.6346827373234,884.7831265202996,0.026675226876121436,0.0,0.16916560707972111,0.22862959853361012,0.04771124921845039,1262.220686245213,16200.162784646142
1.2607449856733526,888.8919040220289,886.5206544904269,0.028580399976052176,0.0,0.16975446825889262,0.22803914282570756,0.047708727870501705,1261.807327450518,16291.088912438217
1.3180515759312321,889.9937104417975,888.0270074146509,0.030515310266457093,0.0,0.17035247581963261,0.2274394809027681,0.04770611191832812,1261.3874863538256,16381.438231035525
1.3753581661891119,890.9649351564523,889.3391043977708,0.0324789078147239,0.0,0.17095931093551234,0.22683093642249766,0.04770340900114639,1260.961394187252,16471.197402784815
1.4326647564469914,891.8264677074574,890.4879812934831,0.03447031345170053,0.0,0.17157470691632182,0.22621378030755726,0.04770062581121636,1260.5292447371414,16560.357120401924
1.4899713467048712,892.595890589616,891.4997444597855,0.03648879353732241,0.0,0.17219844144702318,0.225588238553786,0.047697768168468616,1260.0911998417084,16648.911386951575
1.5472779369627507,893.2879990413945,892.3963486812565,0.03853373898494049,0.0,0.17283033015079832,0.22495449871660142,0.047694841098717716,1259.6473939697466,16736.85692936985
1.6045845272206305,893.9152523673138,893.1962717834907,0.04060464663356688,0.0,0.17347022088590103,0.22431271566762714,0.047691848918244316,1259.197938295127,16824.192695328074
1.66189111747851,894.4881444226171,893.9150679032407,0.042701103697490854,0.0,0.17411798899266986,0.22366301639806127,0.04768879531347042,1258.7429241031534,16910.91944325929
1.7191977077363898,895.0155113396463,894.5658266661476,0.044822774651388064,0.0,0.17477353329054202,0.2230055040681705,0.047685683414508365,1258.2824256669069,16997.03940438271
1.7765042979942693,895.5047990002431,895.1595719355445,0.04696938961085719,0.0,0.1754367725364131,0.2223402615937005,0.047682515865956454,1257.8165027987038,17082.55599438613
1.833810888252149,895.9622807585505,895.7055861826823,0.04914073474750164,0.0,0.17610764250588307,0.22166735460353917,0.04767929488842673,1257.3452029565228,17167.473580627844
1.8911174785100289,896.3932416615912,896.2116847568572,0.05133664405947667,0.0,0.17678609348939972,0.22098683397853017,0.047676022333819706,1256.8685630538891,17251.797287922655
1.9484240687679084,896.8021371693981,896.6844520111131,0.05355699216217352,0.0,0.17747208810047724,0.22029873807512557,0.04767269973572053,1256.3866110464871,17335.53283519358
2.005730659025788,897.1927221108566,897.1294330247079,0.055801688361988254,0.0,0.1781655994749213,0.2196030945530168,0.04766932835186333,1255.899367236966,17418.686403807413
2.063037249283668,897.5681616056618,897.5512983711221,0.05807067148302532,0.0,0.17886660969961954,0.21889992197036276,0.04766590920210819,1255.4068454144647,17501.26452706625
2.1203438395415475,897.9311252825603,897.9539839154871,0.06036390540811434,0.0,0.17957510845881416,0.21818923115862074,0.04766244310180918,1254.9090538371427,17583.273998974102
2.177650429799427,898.2838642332603,898.3408048019228,0.06268137539667058,0.0,0.18029109191649548,0.21747102635776588,0.047658930689662635,1254.4059960437005,17664.72180041576
2.2349570200573066,898.6282780844178,898.7145545246474,0.06502308482985412,0.0,0.1810145617287395,0.21674530621972185,0.04765537245263896,1253.8976715708927,17745.615037525426
2.2922636103151866,898.9659712194623,899.0775875442324,0.06738905245197789,0.0,0.1817455242067586,0.21601206465877126,0.04765176874726518,1253.3840765617356,17825.960891765673
2.349570200573066,899.2982994884813,899.4318872128024,0.06977931006394283,0.0,0.18248398961713644,0.2152712915625924,0.04764811981744701,1252.8652042740605,17905.766579381943
2.4068767908309456,899.6264116175723,899.7791249123948,0.07219390047004519,0.0,0.1832299715589896,0.2145229734251935,0.04764442581043103,1252.341045533266,17985.039318409585
2.464183381088825,899.9512843159117,900.1207083009991,0.07463287575657702,0.0,0.18398348644176107,0.2137670938775635,0.047640686790155755,1251.8115891118796,18063.7863025118
2.521489971346705,900.2737534223673,900.4578209772116,0.07709629581771159,0.0,0.18474455303799045,0.21300363414209672,0.047636902748626656,1251.276822054571,18142.01468018075
2.5787965616045847,900.5945438261791,900.7914559244629,0.07958422703320593,0.0,0.18551319208213501,0.21223257344023905,0.04763307361614191,1250.7367299696978,18219.731539233147
2.6361031518624642,900.9142990552784,901.1224407644171,0.0820967411388996,0.0,0.1862894259278071,0.2114538893407098,0.04762919926992328,1250.1912972782877,18296.943895699256
2.693409742120344,901.2336150617808,901.4514559049452,0.08463391419550166,0.0,0.18707327823478312,0.21066755807744544,0.04762527954194661,1249.6405074413312,18373.65868733919
2.7507163323782238,901.5530833393764,901.7790448729097,0.08719582560038451,0.0,0.18786477366903936,0.2098735548543223,0.04762131422646506,1249.0843431775993,18449.882772883146
2.8080229226361033,901.8733519717741,902.1056135228882,0.08978255710817953,0.0,0.1886639376053762,0.20907185414720023,0.04761730308738883,1248.5227866794833,18525.622937692096
2.865329512893983,902.1952192719397,902.4314166014314,0.09239419173108904,0.0,0.18947079579351817,0.20826243004311806,0.04761324586665762,1247.9558198553873,18600.885909608187
2.922636103151863,902.5197799975468,902.7565312501445,0.09503081242608327,0.0,0.1902853739595173,0.2074452566452888,0.04760914229435612,1247.3834246191643,18675.678389774945
2.9799426934097424,902.8486584135238,903.0808259407979,0.0976925004621266,0.0,0.1911076973099571,0.20662030857687091,0.047604992101322186,1246.805583250108,18750.007106830133
3.037249283667622,903.1843596754467,903.4039720859973,0.10037933357286664,0.0,0.19193778997094077,0.20578756155103314,0.047600795033458716,1246.222278800271,18823.878907186237
3.0945558739255015,903.5307514825017,903.7256278382212,0.10309138469208576,0.0,0.19277567460352477,0.20494699276137854,0.04759655086099449,1245.6334953729975,18897.30089549529
3.1518624641833815,903.893617149579,904.046073560804,0.10582872374986371,0.0,0.193621372946888,0.2040985803282902,0.0475922593619071,1245.0392177254175,18970.280640498677
3.209169054441261,904.2809987344893,904.3676315949097,0.10859142798580135,0.0,0.19447490894390287,0.20324230011776823,0.047587920234037746,1244.4394289900727,19042.826432565475
3.2664756446991405,904.7028803774235,904.6967213123236,0.11137960760782163,0.0,0.19533631651953565,0.20237811782574153,0.047583532878053836,1243.8341050073136,19114.947540109883
3.32378223495702,905.169823301182,905.0451907081816,0.11419344831501246,0.0,0.19620565247129257,0.20150597585893637,0.047579096035923925,1243.2232049317083,19186.654355657927
3.3810888252149,905.6908633401654,905.4288650773036,0.11703325454621909,0.0,0.1970830095738923,0.20062577999151454,0.04757460741358329,1242.6066616728438,19257.958303766252
3.4383954154727796,906.2717332636197,905.863421438314,0.11989946756819937,0.0,0.1979685220392427,0.19973739378621813,0.0475700634930126,1241.9843778808063,19328.871503606802
3.495702005730659,906.9142964775449,906.3602879052473,0.12279264221218997,0.0,0.19886235840741506,0.19884064578023808,0.04756545965373575,1241.3562310433852,19399.4062891245
3.5530085959885387,907.6171715013446,906.9250262023597,0.12571339005543636,0.0,0.19976470421330544,0.19793534703702903,0.04756079051822617,1240.7220859621234,19469.574755793852
3.6103151862464187,908.3768481683599,907.5580282731778,0.12866230611808513,0.0,0.20067573956767787,0.19702131380751772,0.04755605033489607,1240.08181081363,19539.38843548608
3.667621776504298,909.1887511949801,908.256219707554,0.13163988270706017,0.0,0.20159561268355217,0.1960983941979908,0.04755123328523825,1239.4352959485832,19608.85811989346
3.7249283667621778,910.0479891377007,909.0146745492389,0.13464639630607034,0.0,0.20252440494063328,0.19516650322764756,0.04754633367667424,1238.7824784564946,19677.9938025534
3.7822349570200577,910.949786118487,909.8277529741059,0.13768172492884248,0.0,0.20346207429336677,0.1942256794840318,0.04754134604292752,1238.1233817163393,19746.80468883063
3.8395415472779373,911.8896635699422,910.6897685206643,0.14074502272667938,0.0,0.2044083543302388,0.19327618608740132,0.04753626518144668,1237.4581857799576,19815.299245874157
3.896848137535817,912.8634323008184,911.5952841331188,0.14383411841478444,0.0,0.20536256760332022,0.19231869736392798,0.04753108615774638,1236.787357458723,19883.4852594039
3.9541547277936964,913.8670166912285,912.5391396493163,0.146944379853348,0.0,0.20632327329094108,0.19135465117957057,0.04752580429995376,1236.1118958435316,19951.369875329623
4.011461318051576,914.8960798421459,913.5162458504253,0.15006666867099694,0.0,0.2072876324916247,0.19038688364667186,0.04752041519965087,1235.4337745974858,20018.959611845832
4.0687679083094554,915.9453816063531,914.5211352955541,0.1531838467165507,0.0,0.2082503241461747,0.18942071322050744,0.047514914741339835,1234.7566974169329,20086.260309938447
4.126074498567336,917.0077986745947,915.5472286823339,0.15626548609436278,0.0,0.20920190352484652,0.18846558226444554,0.04750929918517604,1234.087241978829,20153.27698892399
4.183381088825215,918.073194692084,916.5859206630361,0.15926224884056706,0.0,0.21012705820138364,0.187536801176375,0.04750356532578679,1233.4360753667122,20220.01358471818
4.240687679083095,919.127891812219,917.6259511177186,0.1621050485717266,0.0,0.21100434791299247,0.1866558086837844,0.04749771073738093,1232.818135490322,20286.472583970834
4.2979942693409745,920.1561577352746,918.6540295461018,0.16471772868092807,0.0,0.2118101387495104,0.18584623782583035,0.04749173404441908,1232.2498897010325,20352.654710753683
4.355300859598854,921.1440492522701,919.6571841893827,0.16704325714281051,0.0,0.21252673175867592,0.1851257874412411,0.047485635068848876,1231.7436705080224,20418.558944421457
4.412607449856734,922.0831477448663,920.6255287694075,0.16906494100548175,0.0,0.2131489462029003,0.1844996388562933,0.047479414742685765,1231.3030881085624,20484.182991774316
4.469914040114613,922.9712631194313,921.5534689741554,0.17080448124567227,0.0,0.21368351609373146,0.18396105916166153,0.04747307480965954,1230.9234508423838,20549.52401951727
4.527220630372493,923.8105223021312,922.4391162206791,0.17230394026209292,0.0,0.2141434944719833,0.1834969967139545,0.047466617480026785,1230.5956643514526,20614.579273792402
4.584527220630373,924.6051081715278,923.2830738551943,0.1736089040989769,0.0,0.2145430282891565,0.1830933060795908,0.04746004515438463,1230.3098724291542,20679.346431843765
4.641833810888253,925.3597912719736,924.0873878480458,0.17475977319601685,0.0,0.21489465562546528,0.18273745069949418,0.04745336023828968,1230.057340206765,20743.82372961602
4.699140401146132,926.0792458196606,924.8548635249894,0.17578934895736628,0.0,0.21520855660881025,0.1824192518991759,0.04744656503012702,1229.830975972219,20808.00996977195
4.756446991404012,926.7677928305048,925.5886499258531,0.17672326769078775,0.0,0.21549268795467189,0.18213075430697226,0.04743966165494715,1229.6252372987815,20871.904482322934
4.813753581661891,927.4293367654947,926.2919901251653,0.17758134751470114,0.0,0.21575320085298638,0.1818658079448533,0.04743265202921201,1229.435839770514,20935.50706705706
4.871060171919771,928.0673843249559,926.9680733436694,0.17837899964928114,0.0,0.21599485396245016,0.18161965522411416,0.0474255627497453,1229.259451796013,20998.81793768602
4.92836676217765,928.685142781942,927.6199659065431,0.17912869997564324,0.0,0.21622134912644161,0.18138859524711964,0.047418566060535045,1229.0933764137865,21061.83767511856
4.985673352435531,929.2854311000781,928.2505741663339,0.17983992853394487,0.0,0.21643560037640275,0.18116971480726574,0.04741169205341288,1228.9355643780893,21124.567181197548
5.04297994269341,929.8707425807868,928.862585390713,0.1805201624883093,0.0,0.21663993646077484,0.1809606858404979,0.04740493420771181,1228.7843994232392,21187.007632121848
5.10028653295129,930.4432944236828,929.4584587206618,0.18117545745777983,0.0,0.21683624358955686,0.1807596226865233,0.047398287052708266,1228.638572561624,21249.16044023968
5.157593123209169,931.0050594521256,930.0404304953272,0.18181078543620258,0.0,0.2170260704046549,0.18056497712711786,0.047391746078790306,1228.497009019426,21311.027220255237
5.214899713467049,931.5577933311881,930.610524230907,0.18243027939975104,0.0,0.21721070398445833,0.1803754623897964,0.047385307658603215,1228.3588153498501,21372.609760646697
5.2722063037249285,932.103060001559,931.1705650023836,0.18303741955846123,0.0,0.2173912277408086,0.18018999525958865,0.047378968969428295,1228.2232391656853,21433.90999778971
5.329512893982808,932.6422543449705,931.722195460328,0.1836351725339381,0.0,0.21756856470164976,0.1800076528047996,0.047372727921923145,1228.0896390508224,21494.929993440914
5.386819484240688,933.1766217216051,932.2668915530156,0.18422609526094974,0.0,0.21774350983525426,0.17982764006026133,0.04736658309845025,1227.9574620990638,21555.671915577197
5.444126074498568,933.7072762531656,932.8059790713255,0.18481241687313552,0.0,0.2179167555408405,0.1796492645442059,0.04736053369347358,1227.826226213665,21616.138021076153
5.5014326647564475,934.2352166646383,933.3406490270665,0.18539610089587474,0.0,0.2180889110181477,0.1794719168953213,0.047354579461827716,1227.6955066645048,21676.330640958568
5.558739255014327,934.7613400970785,933.8719717825907,0.18597889340347856,0.0,0.2182605172724589,0.17929505587355196,0.047348720673951614,1227.5649256796316,21736.252167692906
5.616045845272207,935.2864549026133,934.4009108048291,0.18656236205159146,0.0,0.21843205928558337,0.17911819619478347,0.04734295807322999,1227.4341440098187,21795.905043850722
5.673352435530086,935.8112914962113,934.9283346883597,0.1871479261477501,0.0,0.21860397539613793,0.17894089915531022,0.04733729284054891,1227.3028544302315,21855.291752556863
5.730659025787966,936.3365119631759,935.4550280893659,0.18773688082625406,0.0,0.218776664844633,0.17876276509096953,0.04733172656308768,1227.1707765165188,21914.414809183105
5.787965616045845,936.8627187866649,935.9817019013242,0.18833041697064415,0.0,0.21895049399622082,0.17858342715837813,0.047326261205201295,1227.037652340236,21973.27675406754
5.845272206303726,937.3904621744438,936.5090019291539,0.18892963679545435,0.0,0.2191258012085229,0.17840254647030102,0.04732089908506699,1226.9032431022283,22031.88014638982
5.902578796561605,937.9202466451851,937.0375168062046,0.1895355668428284,0.0,0.2193029008943366,0.1782198080358637,0.04731564285345993,1226.767326324775,22090.227558822753
5.959885386819485,938.4525368739386,937.5677851087426,0.1901491687737502,0.0,0.21948208689712384,0.17803491738770466,0.0473104954745905,1226.6296935203907,22148.32157294112
6.017191977077364,938.9877626027844,938.100301382399,0.19077134797469072,0.0,0.21966363518267004,0.17784759789234902,0.04730546021119128,1226.4901483324927,22206.16477532652
6.074498567335244,939.5263231119578,938.6355216759853,0.19140296100484577,0.0,0.2198478061699731,0.17765758842125423,0.04730054061029025,1226.3485049266915,22263.759754198003
6.131805157593123,940.0685911005064,939.1738683731561,0.19204482180230528,0.0,0.2200348466741222,0.17746464140956644,0.047295740491028616,1226.2045866501921,22321.109096563552
6.189111747851003,940.614915983494,939.7157343137152,0.19269770678150877,0.0,0.22022499150105393,0.17726852126256373,0.04729106393536628,1226.0582249305653,22378.21538577581
6.2464183381088825,941.1656269185528,940.2614865903047,0.19336235940839058,0.0,0.22041846488040168,0.1770690029240203,0.04728651527861178,1225.9092582874757,22435.08119947742
6.303724928366763,941.7210353892995,940.8114697936538,0.19403949403624327,0.0,0.2206154816660278,0.1768658706765697,0.0472820991019916,1225.7575315039962,22491.709107867395
6.3610315186246424,942.2814374496992,941.3660088319342,0.19472979920350325,0.0,0.2208162483671796,0.17665891711117215,0.04727782022688795,1225.602894914039,22548.101672212695
6.418338108882522,942.8471157862452,941.9254115199591,0.19543394068607287,0.0,0.22102096410409758,0.17644794217218396,0.04727368370856646,1225.445203742915,22604.261443659805
6.4756446991404015,943.4183414699031,942.4899707723744,0.19615256409836973,0.0,0.22122982142076092,0.1762327523449653,0.04726969483187129,1225.284317545195,22660.19096221437
6.532951289398281,943.9953755244883,943.0599665592857,0.19688629726407236,0.0,0.22144300702522354,0.17601315991577157,0.04726585910752478,1225.1200996922612,22715.89275589825
6.590257879656161,944.578470359402,943.6356676859891,0.1976357524422287,0.0,0.22166070248558506,0.1757889822760468,0.04726218226798716,1224.9524168911673,22771.369340126836
6.64756446991404,945.1678710021956,944.2173333115844,0.19840152828959737,0.0,0.22188308484152386,0.17556004131084,0.04725867026509205,1224.7811387602653,22826.623217154818
6.704871060171921,945.7638162344379,944.805214339614,0.19918421173532433,0.0,0.22211032718887655,0.1753261628141725,0.047255329267419384,1224.6061374237831,22881.656875680805
6.7621776504298,946.3665396231114,945.3995546719442,0.19998437974685107,0.0,0.22234259923054334,0.17508717593806003,0.04725216565753425,1224.4272871299086,22936.472790593696
6.81948424068768,946.9762704321123,946.0005923029041,0.2008026009460323,0.0,0.22258006777872744,0.17484291268991245,0.04724918603068341,1224.2444639010123,22991.073422736717
6.876790830945559,947.5932344790594,946.608560341612,0.20163943718727467,0.0,0.22282289724652984,0.17459320744067117,0.04724639719258524,1224.057545192166,23045.461218828546
6.934097421203439,948.2176549129966,947.2236879304975,0.20249544503962608,0.0,0.22307125010921153,0.1743378964631795,0.047243806157497396,1223.8664095703411,23099.638611452778
6.991404011461318,948.8497529253493,947.8462010729498,0.2033711771854201,0.0,0.2233252873379862,0.17407681749778403,0.047241420147270785,1223.6709364114506,23153.608019053405
7.048710601719198,949.4897484209683,948.4763234122095,0.20426718377628988,0.0,0.22358516882223697,0.17380980932966356,0.04723924658913083,1223.471005606734,23207.371846080256
7.106017191977077,950.1378606336401,949.1142769364739,0.20518401370629102,0.0,0.223851053764875,0.1735367113928269,0.04723729311412933,1223.2664972869077,23260.9324831424
7.163323782234958,950.7943087051428,949.760282634324,0.20612221583308443,0.0,0.2241231010608528,0.1732573633907989,0.047235567555944755,1223.0572915574096,23314.292307183558
7.220630372492837,951.459312226242,950.4145611075212,0.20708234012945298,0.0,0.22440146965574237,0.17297160493739838,0.04723407794838731,1222.8432682488442,23367.4536817822
7.277936962750717,952.1330917451843,951.0773331380835,0.20806493877658908,0.0,0.2246863188847083,0.17267927521685472,0.04723283252379292,1222.6243066797888,23420.418957421803
7.335243553008596,952.8158692499395,951.7488202232763,0.20907056720034736,0.0,0.22497780879401866,0.17238021266133635,0.04723183971106456,1222.4002854318894,23473.19047180969
7.392550143266476,953.5078686147931,952.4292450715916,0.21009978502771795,0.0,0.22527610043910104,0.17207425465204065,0.04723110813267344,1222.1710821423017,23525.77055027998
7.4498567335243555,954.2093160325725,953.1188320754833,0.21115315700301124,0.0,0.22558135616847105,0.17176123723409595,0.04723064660252638,1221.9365733045688,23578.16150615333
7.507163323782235,954.9204404193307,953.817807754572,0.21223125383332073,0.0,0.22589373988686737,0.17144099485232334,0.04723046412284501,1221.6966340848542,23630.365641166998
7.5644699140401155,955.6414737895263,954.5264011665278,0.2133346529537645,0.0,0.22621341729416164,0.17111336011123388,0.04723056988040316,1221.4511381555237,23682.385245944664
7.621776504297995,956.3726516300067,955.2448443105782,0.21446393927337903,0.0,0.22654055611688298,0.1707781635420858,0.04723097324336752,1221.199957532639,23734.222600428406
7.679083094555875,957.1142132383296,955.9733724954907,0.21561970582593248,0.0,0.2268753263120996,0.1704352333977559,0.047231683756691074,1220.9429624341515,23785.879974390064
7.736389684813754,957.8664020451076,956.7122246883724,0.21680255436630105,0.0,0.2272179002543635,0.1700843954644311,0.04723271113726974,1220.6800211497718,23837.359627943715
7.793696275071634,958.6294659392522,957.4616438624929,0.21801309595009744,0.0,0.22756845291665256,0.16972547287901457,0.04723406526922488,1220.4109999142122,23888.663812038456
7.851002865329513,959.4036575509323,958.2218773033915,0.21925195140603246,0.0,0.22792716202023466,0.16935828597785188,0.04723575619755153,1220.1357628038313,23939.794769023076
7.908309455587393,960.1892345358051,958.9931769128492,0.22051975178747202,0.0,0.2282942081774202,0.16898265215230582,0.04723779412179929,1219.854171637552,23990.754733186823
7.965616045845272,960.98645942716,959.7757992591888,0.22181713584351676,0.0,0.2286697741089043,0.16859838662955953,0.04724018938927082,1219.5660865221223,24041.545931300014
8.022922636103152,961.7955907005082,960.5699998542556,0.2231446928440872,0.0,0.2290540268953928,0.1682053202197319,0.04724295248705358,1219.2713782145408,24092.17058273472
8.080229226361032,962.61691390202,961.3760521226069,0.22450316829299327,0.0,0.2294471818581941,0.16780323543296688,0.04724609403259705,1218.9698836366674,24142.630900577886
8.137535816618911,963.4507095784132,962.1942298058784,0.22589323489096685,0.0,0.22984943144410225,0.16739193759208426,0.04724962476474012,1218.6614554000544,24192.929092640992
8.194842406876791,964.2972643478355,963.0248123023946,0.22731557714532566,0.0,0.23026097150375008,0.16697122855266483,0.047253555533886736,1218.3459435086154,24243.067361560647
8.252148997134672,965.1568712894406,963.868085055938,0.22877089220012037,0.0,0.23068200155498894,0.16654090643731825,0.04725789729108831,1218.023195177093,24293.04790538467
8.30945558739255,966.0298301720728,964.7243398156811,0.23025988987803464,0.0,0.23111272480321132,0.16610076561314388,0.047262661075754844,1217.6930548200935,24342.872918179193
8.36676217765043,966.9164476622444,965.5938748695281,0.2317832926969548,0.0,0.23155334815473513,0.16565059667612084,0.04726785800241946,1217.3553640465936,24392.544590640744
8.42406876790831,967.8170375609465,966.4769952994086,0.23334183594250224,0.0,0.23200408224707983,0.16519018641810965,0.04727349924682346,1217.009961641918,24442.06511069803
8.48137535816619,968.7319209934533,967.3740131873046,0.234936267654956,0.0,0.23246514145482391,0.16471931781856397,0.04727959603053264,1216.656683568477,24491.436664135716
8.538681948424069,969.6614266041479,968.2852478220846,0.23656734862380524,0.0,0.23293674389819388,0.1642377700332894,0.04728615960467348,1216.295362964672,24540.661435212525
8.595988538681949,970.6058907760217,969.2110259269756,0.23823585241348794,0.0,0.23341911146152036,0.16374531837290449,0.04729320123248257,1215.9258301366767,24589.741607281856
8.65329512893983,971.5656577980812,970.1516818343508,0.23994256529230393,0.0,0.23391246978380656,0.1632417343095724,0.04730073217058465,1215.5479125714955,24638.679363420568
8.710601719197708,972.5410800616179,971.1075576860244,0.24168828619672156,0.0,0.23441704826033657,0.16272678547223457,0.047308763649151174,1215.1614349419685,24687.476887054712
8.767908309455589,973.5325182650502,972.0790036400601,0.24347382668966303,0.0,0.2349330800433177,0.16220023564254893,0.04731730685055003,1214.7662191128559,24736.13636259376
8.825214899713467,974.5403415723529,973.0663780312325,0.24530001083157574,0.0,0.23546080201723735,0.1616618447764627,0.04732637288702408,1214.362084166084,24784.65997605924
8.882521489971348,975.5649278171669,974.0700475743106,0.24716767510016224,0.0,0.2360004547894462,0.16111136900989934,0.04733597277671303,1213.9488464148994,24833.049915722262
8.939828080229226,976.6066636928102,975.0903875526978,0.24907766826433625,0.0,0.23655228266792971,0.1605485606772344,0.04734611741822846,1213.5263194279057,24881.308372744606
8.997134670487107,977.6659449117731,976.1277819766827,0.2510308511949503,0.0,0.2371165336207238,0.15997316834831624,0.04735681756439434,1213.0943140669333,24929.437541807896
9.054441260744985,978.7431764184089,977.1826237925262,0.2530280967208207,0.0,0.23769345924987836,0.15938493685014243,0.047368083793651955,1212.6526385144314,24977.439621766312
9.111747851002866,979.8387725634145,978.2553150541619,0.25507028940484927,0.0,0.23828331474212003,0.15878360731208632,0.047379926480539195,1212.2010983183518,25025.316816287555
9.169054441260746,980.9531572709755,979.3462670876901,0.25715832528586197,0.0,0.23888635880975242,0.1581689172207949,0.04739235576507316,1211.7394964443727,25073.07133448745
9.226361031518625,982.0867642550207,980.4559007038029,0.25929311164506214,0.0,0.23950285364016569,0.15754060046564866,0.04740538151924137,1211.2676333220807,25120.705391597963
9.283667621776505,983.240037176513,981.5846463541833,0.26147556666893934,0.0,0.24013306481438282,0.15689838741567672,0.047419013313443385,1210.7853069139753,25168.22120960274
9.340974212034384,984.4134298182341,982.7329443071376,0.26370661909844406,0.0,0.24077726122214965,0.15624200499946173,0.04743326038103764,1210.2923127870379,25215.621017884005
9.398280802292264,985.6074062877212,983.9012448550146,0.26598720785965624,0.0,0.24143571497258037,0.15557117678878257,0.04744813157993841,1209.788444187697,25262.907053900082
9.455587392550143,986.8224411452163,985.0900084570002,0.2683182815697483,0.0,0.24210870126665604,0.15488562312100979,0.047463635355032056,1209.273492144284,25310.08156381311
9.512893982808023,988.0590195587328,986.2997059229364,0.2707007980076232,0.0,0.24279649825985763,0.15418506123049813,0.04747977969745748,1208.7472455763796,25357.14680315157
9.570200573065904,989.3176374318051,987.5308185979304,0.2731357234644721,0.0,0.24349938688869702,0.15346920541566472,0.047496572101713076,1208.2094914297702,25404.105037481917
9.627507163323783,990.5988014159175,988.7838384829494,0.27562403187240286,0.0,0.24421765062829456,0.15273776727553254,0.047514019523948396,1207.6600148598384,25450.958543021534
9.684813753581663,991.9030288746771,990.0592683983887,0.27816670368339974,0.0,0.24495157517398872,0.15199045602103142,0.04753212833582591,1207.098599467899,25497.709607299726
9.742120343839542,993.2308476220201,991.3576220947538,0.28076472421519827,0.0,0.24570144795776644,0.15122697895147677,0.047550904277909305,1206.5250276528132,25544.360529775808
9.799426934097422,994.5827952683233,992.6794242833587,0.2834190811103298,0.0,0.24646755738876083,0.15044704220718746,0.047570352413880676,1205.9390811545484,25590.913622377597
9.8567335243553,995.9594179450303,994.0252106490672,0.2861307601996707,0.0,0.24725019159978506,0.1496503520146471,0.04759047707961799,1205.3405419415303,25637.371210035115
9.914040114613181,997.3612677068011,995.3955276770764,0.28890073837004143,0.0,0.24804963626162255,0.14883661686439548,0.047611281834627296,1204.729193746258,25683.735631009273
9.971346704871062,998.7888975752829,996.7909322592562,0.291729970982923,0.0,0.24886617070296785,0.14800555138300883,0.0476327694138875,1204.1048247789672,25730.00923694495
10.02865329512894,1000.242851974947,998.2119909831163,0.29461936855868287,0.0,0.24970006069429568,0.14715688353978618,0.047654941676616235,1203.4672327613475,25776.194392472946
10.08595988538682,1001.7236483349244,999.6592787789657,0.29756975331435576,0.0,0.2505515449640293,0.1462903681221676,0.047677799563997786,1202.8162343176152,25822.293473750204
10.1432664756447,1003.2317416915866,1001.1333766515188,0.30058177671527364,0.0,0.2514208095901898,0.14540581233498764,0.04770134306339648,1202.1516827953728,25868.30886518327
10.20057306590258,1004.7674549106611,1002.6348678320942,0.3036557583143654,0.0,0.25230793791131384,0.14450312587978517,0.047725571188234645,1201.4735031066457,25914.242952513556
10.257879656160458,1006.3308430121224,1004.1643310304747,0.3067913742533146,0.0,0.25321281367148096,0.14358241780191933,0.047750482002246235,1200.7817590796938,25960.098108844035
10.315186246418339,1007.9214267735612,1005.7223232895565,0.30998704642458036,0.0,0.25413493105496576,0.14264418644832014,0.047776072716005175,1200.0767855401582,26005.87666696172
10.37249283667622,1009.5376130250544,1007.3096719813847,0.31323874122198336,0.0,0.2550730209694767,0.1416896931631157,0.04780233998127798,1199.3594480510733,26051.580863411025
10.429799426934098,1011.1754914918208,1008.9268625859359,0.31653769942168575,0.0,0.25602434466809504,0.14072166862741728,0.04782928055105999,1198.6316337704095,26097.2127202273
10.487106017191978,1012.8272073255149,1010.5731868204151,0.3198662838331984,0.0,0.2569834026186553,0.1397456041375418,0.04785689211417377,1197.897149482849,26142.773827727797
10.544412607449857,1014.4781313702006,1012.2459202125781,0.323191380584459,0.0,0.25793988208624413,0.13877180425365293,0.047885175089082625,1197.163148705935,26188.264975029775
10.601719197707737,1016.1035017072335,1013.9362301788831,0.32645700298487323,0.0,0.25887635695542793,0.13781768762717592,0.04791413513008499,1196.4417315926623,26233.68556119117
10.659025787965616,1017.6676592759045,1015.6212508933511,0.3295833282772862,0.0,0.2597679903364008,0.1369080861455293,0.047943784913590505,1195.7501547383831,26279.03283329711
10.716332378223496,1019.1311957049044,1017.2583118924218,0.33248468096669737,1.3295582380038644e-06,0.260588137182714,0.13606963764555394,0.04797414305004113,1195.1069202137146,26324.301346641885
10.773638968481375,1020.4657503112144,1018.7945996266048,0.33510372400204325,2.4823817693866105e-05,0.26131903342403495,0.13531999203392198,0.04800523677651259,1194.5240424872447,26369.48324033201
10.830945558739256,1021.6638547764077,1020.1926152508032,0.33743333140002507,7.468950049958689e-05,0.2619585089491665,0.13466131296567152,0.048037079559041164,1194.0029993423643,26414.56946246623
10.888252148997136,1022.736327647789,1021.4422962281911,0.3395066158868668,0.00014867689045287705,0.26251690521727167,0.134083295940655,0.048069675467276064,1193.536693333528,26459.551233500668
10.945558739255015,1023.7033485559415,1022.5553320704676,0.3413729659734287,0.0002444997519142514,0.26300962901574837,0.13357057186546475,0.04810302497523442,1193.1145086685235,26504.421017242137
11.002865329512895,1024.5868388501658,1023.553554321523,0.34308068607308406,0.0003601467181418702,0.2634517459605756,0.13310810868229522,0.04813712816732851,1192.7260566320435,26549.17287261243
11.060171919770774,1025.4065983501066,1024.4605314596479,0.34467017726784926,0.0004939967901546869,0.2638558557067052,0.13268333428876766,0.048171986646623505,1192.36264697908,26593.802390775447
11.117478510028654,1026.1790622725923,1025.2975926135077,0.346173085292526,0.0006448238028192992,0.264231825839971,0.13228640254250273,0.04820760425871979,1192.0174720256393,26638.3064743088
11.174785100286533,1026.9172961368818,1026.0825341492377,0.3476135980018953,0.0008117530746690202,0.26458719590279883,0.13190978991451244,0.048243987126755455,1191.6853272668977,26682.683081040155
11.232091690544413,1027.6314525614227,1026.8296031636423,0.3490101285829366,0.000994204005549912,0.2649277021178112,0.13154777168366408,0.048281143365856385,1191.3622489807299,26726.930987983265
11.289398280802294,1028.329302411822,1027.5499242886149,0.3503767388376394,0.0011918365971071482,0.26525772139443043,0.13119597879374315,0.04831908271214304,1191.0452079373283,26771.04959962319
11.346704871060172,1029.0167364697913,1028.2520515695824,0.35172425508995947,0.001404504109768265,0.2655806196873705,0.1308510502614677,0.04835781614796523,1190.7318694074972,26815.03879239649
11.404011461318053,1029.6981869062192,1028.9424914166848,0.3530610909337031,0.0016322139800129972,0.26589900900165936,0.1305103768040256,0.04839735557371606,1190.4204163344978,26858.898793734414
11.461318051575931,1030.3769605508642,1029.6261414900023,0.3543938383699985,0.0018750970681089807,0.2662149321515618,0.13017191657832494,0.04843771354108649,1190.109422358889,26902.630090504375
11.518624641833812,1031.0555077730378,1030.3066585167278,0.35572770986528346,0.0021333826298812735,0.2665300009871238,0.12983405735742096,0.04847890303786492,1189.7977569194798,26946.23335782779
11.57593123209169,1031.7356294364397,1030.9867481328254,0.3570668606292157,0.002407378921083166,0.26684549720049267,0.12949551603519932,0.048520937323914916,1189.4845160987654,26989.709405842572
11.633237822349571,1032.4186355884729,1031.6683907110512,0.3584146269882493,0.0026974582958917306,0.267162446903622,0.12915526428722415,0.04856382980765086,1189.1689714875874,27033.059139923327
11.690544412607451,1033.1054702166678,1032.3530212248168,0.35977371095468463,0.0030040453317585207,0.26748167837174874,0.12881247101500656,0.04860759395392479,1188.8505305990443,27076.28353048425
11.74785100286533,1033.796804981345,1033.041665650117,0.36114631839470945,0.0033276079391766603,0.2678038652678391,0.12846645926191683,0.048652243217763944,1188.5287072342733,27119.38359097779
11.80515759312321,1034.4931108606072,1033.7350460577031,0.36253426594425453,0.003668650617441497,0.2681295600840483,0.1281166728780527,0.048697790996464034,1188.2030985473718,27162.36036168264
11.862464183381089,1035.194713327708,1034.4336621741368,0.3639390660192393,0.004027709214578878,0.26845922072074985,0.1277626500224555,0.04874425059615443,1187.873366804872,27205.214897856622
11.91977077363897,1035.901833161538,1035.1378520785045,0.365361991868717,0.004405347199109988,0.26879323082096696,0.12740400288736212,0.048791635208006674,1187.5392254205237,27247.948261364432
11.977077363896848,1036.6146173941174,1035.8478385348883,0.3668041295635238,0.004802152910591046,0.26913191601452374,0.12704040149742488,0.048839957891311105,1187.2004277884946,27290.561514740086
12.034383954154729,1037.333162440972,1036.5637638657663,0.3682664195371673,0.005218737542484705,0.26947555689132957,0.12667156076792674,0.04888923156174452,1186.8567583554873,27333.05571714213
12.091690544412609,1038.0575309053493,1037.2857154449835,0.36974968878516756,0.005655733890262434,0.2698243990563695,0.12629723047103691,0.048939468981581455,1186.5080256935396,27375.43192165325
12.148997134670488,1038.787764015445,1038.0137447216289,0.3712546769562562,0.0061137955014105225,0.27017866127401857,0.1259171871062208,0.048990682751904296,1186.154056882498,27417.691173582378
12.206303724928368,1039.5238905230503,1038.7478809544577,0.3727820569775786,0.0065935961830152065,0.2705385419049236,0.1255312274727598,0.04904288530562971,1185.7946930649618,27459.8345095013
12.263610315186247,1040.2659329716141,1039.4881409733994,0.3743324511426757,0.0070958299064220395,0.27090422392938973,0.12513916365125358,0.049096088899473346,1185.4297859730277,27501.862956733028
12.320916905444127,1041.0139120764616,1040.234536101735,0.37590644411139745,0.007621210820040817,0.2712758790057947,0.12474081894770923,0.0491503056063039,1185.059195119247,27543.777533239034
12.378223495702006,1041.7678496412505,1040.9870768403748,0.37750459300972566,0.008170473460754567,0.27165367062626605,0.12433602473805327,0.04920554730642325,1184.6827856099856,27585.579247724232
12.435530085959886,1042.527770460073,1041.7457759858964,0.37912743532173515,0.008744373170302747,0.2720377565869746,0.1239246179961181,0.04926182567701206,1184.3004264317644,27627.26909985807
12.492836676217765,1043.2937034523386,1042.5106505729907,0.380775495156027,0.009343686475429443,0.2724282909505769,0.1235064393290019,0.049319152181726965,1183.9119890891816,27668.848080642598
12.550143266475645,1044.0656822833914,1043.2817229993525,0.38244928803266554,0.009969211620477867,0.27282542555085737,0.12308133146908977,0.04937753805836288,1183.5173465596968,27710.317172791016
12.607449856733526,1044.8437456350605,1044.0590215912057,0.3841493246035726,0.010621769182041935,0.27322931116732363,0.12264913809546164,0.04943699430498014,1183.1163724773621,27751.677351119535
12.664756446991404,1045.6279372083975,1044.842580744231,0.385876113513253,0.011302202597935289,0.27364009843101256,0.12220970292436045,0.049497531666271584,1182.7089405038455,27792.929582980854
12.722063037249285,1046.4183056036593,1045.6324408444495,0.38763016355498964,0.012011378847015105,0.2740579385149371,0.12176286901422119,0.04955916061752761,1182.2949238490614,27834.07482864322
12.779369627507164,1047.2149041031491,1046.4286480222556,0.3894119853051213,0.01275018911474938,0.2744829836627771,0.12130847823249957,0.0496218913479043,1181.874194904901,27875.11404166582
12.836676217765044,1048.0177903965964,1047.2312538028557,0.39122209231776506,0.013519549385534874,0.27491538758015444,0.12084637086030425,0.04968573374384584,1181.4466249753377,27916.048169271773
12.893982808022923,1048.827026319755,1048.0403147510676,0.39306100200886224,0.01432040119043828,0.275355305733587,0.12037638528860226,0.049750697369841015,1181.0120840709674,27956.878152660687
12.951289398280803,1049.642677581746,1048.8558920883754,0.3949292362708036,0.015153712258283918,0.275802895564527,0.11989835779986448,0.04981679144959783,1180.5704407635735,27997.604927325156
13.008595988538683,1050.4648135124792,1049.6780513269248,0.39682732187790926,0.016020477145520837,0.2762583166387118,0.11941212241455619,0.04988402484689129,1180.1215620863484,28038.22942334681
13.065902578796562,1051.293506855501,1050.506861953837,0.3987557907618898,0.016921718009014094,0.2767217307592317,0.11891751077321243,0.04995240604377101,1179.6653134596934,28078.75256564627
13.123209169054443,1052.1288335720785,1051.3423971286095,0.4007151801336074,0.0178584852183722,0.2771933020289693,0.11841435206999924,0.05002194312032518,1179.2015586531777,28119.17527424661
13.180515759312321,1052.9708726866083,1052.1847334310662,0.4027060325176181,0.01883185802021132,0.2776731968877993,0.11790247301127653,0.05009264373321829,1178.7301597654516,28159.49846450916
13.237822349570202,1053.8197061735607,1053.0339506594614,0.40472889572607884,0.01984294530056703,0.27816158413406944,0.11738169778937588,0.0501645150921303,1178.250977215516,28199.723047343054
13.29512893982808,1054.6754188573168,1053.8901316482747,0.4067843227359287,0.02089288615761157,0.2786586349120886,0.1168518480913742,0.05023756393853872,1177.7638697583484,28239.849929431668
13.35243553008596,1055.5380983542157,1054.7533621376385,0.40887287153727353,0.02198285059834091,0.2791645226942306,0.1163127431125986,0.05031179652216607,1177.2686945045211,28279.880013430386
13.409742120343841,1056.4078350426353,1055.6237306776948,0.4109951049382945,0.023114040254539853,0.2796794232506913,0.11576419958235852,0.05038721857652544,1176.7653069488633,28319.81419815697
13.46704871060172,1057.2847220435683,1056.5013285502787,0.4131515903074807,0.024287688926765583,0.28020351459588655,0.11520603181393417,0.050463835296879124,1176.253561015789,28359.653378795512
13.5243553008596,1058.1688552388307,1057.386249734319,0.41534289930742696,0.025505063299967077,0.2807369769371017,0.11463805175136958,0.05054165131492741,1175.7333091033167,28399.39844707553
13.581661891117479,1059.0603333033325,1058.2785908901903,0.4175696075840457,0.026767463581868968,0.2812799926078538,0.11406006903192631,0.050620670674286355,1175.2044021381091,28439.050291457937
13.63896848137536,1059.959257746961,1059.1784513588207,0.41983229441596676,0.028076224026708337,0.2818327459861939,0.11347189106417682,0.05070089680766584,1174.6666896411834,28478.60979732792
13.696275071633238,1060.8657329892696,1060.0859331963911,0.42213154235455674,0.029432713643665807,0.28239542341552293,0.11287332310253367,0.050782332510301204,1174.1200197922515,28518.07784717011
13.753581661891118,1061.7798664359239,1061.0011412145823,0.4244679368169785,0.030838336732219637,0.2829682131066034,0.11226416834146408,0.050864979916072604,1173.564239507332,28557.45532075894
13.810888252148999,1062.7017685672809,1061.9241830359576,0.426842065653324,0.032294533387151186,0.28355130503097303,0.11164422801841235,0.050948840473909046,1172.999194522483,28596.743095349328
13.868194842406877,1063.631553054713,1062.8551691777236,0.4292545186930932,0.03380278015874894,0.28414489081281535,0.111013301517343,0.05103391492071768,1172.4247294791166,28635.942045858566
13.925501432664758,1064.5693368690227,1063.794213131059,0.43170588724828146,0.03536459046714118,0.28474916360082536,0.11037118649356727,0.051120203258648425,1171.8406880231435,28675.053045065764
13.982808022922637,1065.5152404068635,1064.7414314593093,0.43419676359421555,0.036981515080022585,0.28536431793532585,0.10971767900289932,0.05120770473076696,1171.2469129077142,28714.076963807544
14.040114613180517,1066.4693876375836,1065.6969439164886,0.43672774041685936,0.03865514266743622,0.2859905496078362,0.10905257363783635,0.05129641779455075,1170.643246101745,28753.014671174107
14.097421203438396,1067.4319062370064,1066.66087355607,0.43929941022641344,0.04038710008703579,0.28662805550268083,0.10837566368312257,0.05138634010047929,1170.029528910607,28791.86703472007
14.154727793696276,1068.4029277464208,1067.633346864033,0.4419123647411641,0.04217905280815716,0.28727703343399175,0.10768674127504836,0.05147746846723033,1169.4056021006443,28830.634920671768
14.212034383954155,1069.38258774132,1068.6144939020144,0.44456719423155633,0.04403270529748962,0.2879376819699577,0.10698559757361015,0.051569798856945875,1168.771306032925,28869.31919414171
14.269340974212035,1070.371025987786,1069.6044484410427,0.4472644868405508,0.04594980116909296,0.28861020024302725,0.10627202294996066,0.051663326355092985,1168.1264808063886,28907.92071935282
14.326647564469916,1071.3683866299891,1070.6033481242084,0.45000482785827095,0.047932123506809136,0.28929478775202805,0.10554580718084426,0.05175804514576231,1167.4709664076295,28946.440359863085
14.383954154727794,1072.3748183740743,1071.6113346273892,0.45278879896260177,0.04998149502255508,0.28999164414949724,0.10480673965864139,0.05185394848975177,1166.8046028709834,28984.878978800083
14.441260744985675,1073.390474666066,1072.6285538160416,0.45561697743877316,0.05209977805399252,0.2907009690181072,0.1040546096131399,0.05195102870562848,1166.1272304460588,29023.237439101176
14.498567335243553,1074.41551390338,1073.6551559329698,0.4584899353349567,0.05428887471886239,0.2914229616334529,0.10328920634589131,0.052049277145992626,1165.4386897761092,29061.516603760054
14.555873925501434,1075.4500996282752,1074.6912957713855,0.46140823860211566,0.0565507267948565,0.2921578207141557,0.10251031947872402,0.052148684179149425,1164.7388220848072,29099.71733608125
14.613180515759312,1076.494400726558,1075.7371328539616,0.46437244620243096,0.05888731553289163,0.292905744161109,0.10171773921338616,0.052249239171349146,1164.027469370972,29137.840499939597
14.670487106017193,1077.5485916564787,1076.7928316399416,0.46738310914179276,0.06130066155875003,0.2936669287778544,0.10091125660935342,0.052350930465177144,1163.304474617955,29175.88696005133
14.727793696275073,1078.6128526472073,1077.8585617066944,0.4704407695122131,0.06379282443174882,0.2944415699838443,0.1000906638706682,0.05245374536518266,1162.569682007175,29213.857582247845
14.785100286532952,1079.6873699167281,1078.9344979499338,0.47354595947715744,0.06636590222249614,0.29522986151237124,0.09925575464784038,0.05255767012138469,1161.8229371435489,29251.753233758056
14.842406876790832,1080.772335908041,1080.020820801724,0.4766992001862045,0.0690220310621443,0.2960319950879965,0.09840632436021073,0.0526626899112081,1161.064087296588,29289.574783504147
14.899713467048711,1081.8679494894648,1081.117716418144,0.4799010007200434,0.07176338434421788,0.29684816010293974,0.09754217052134645,0.05276878882892598,1160.292981641363,29327.323102394115
14.957020057306591,1082.9744161869748,1082.2253768971207,0.4831518569432632,0.07459217198827256,0.2976785432698062,0.09666309308750345,0.05287594987083975,1159.5094715181053,29364.99906363021
15.01432664756447,1084.0919484152205,1083.344000496877,0.48645225031505845,0.07751063953830446,0.2985233282583908,0.09576889482281119,0.052984154922038,1158.7134107038685,29402.603543026573
15.07163323782235,1085.2207656761527,1084.473791827221,0.48980264673285057,0.0805210669636204,0.29938269533413187,0.09485938166453306,0.05309338474926442,1157.9046556825876,29440.137419321007
15.128939828080231,1086.3610947966292,1085.6149620776644,0.49320349524973617,0.08362576750479624,0.3002568209633311,0.09393436312097797,0.053203618988486766,1157.0830659413823,29477.60157451071
15.18624641833811,1087.5131701405674,1086.7677292247845,0.4966552268001301,0.08682708623404709,0.30114587741380333,0.09299365267558611,0.05331483613729607,1156.2485042703468,29514.99689418702
15.24355300859599,1088.6772338001904,1087.9323182227797,0.5001582529358829,0.09012739838999183,0.3020500323535074,0.09203706819431037,0.05342701355082011,1155.4008370642441,29552.324267867192
15.300859598853869,1089.853535824566,1089.108961229966,0.5037129644156266,0.09352910768517854,0.30296944840878,0.09106443237317308,0.05354012743257842,1154.5399346562044,29589.584589355625
15.35816618911175,1091.0423343985296,1090.2978977927612,0.5073197298653868,0.09703464425226666,0.3039042827343334,0.09007557317625685,0.05365415283279066,1153.6656716427783,29626.77875708969
15.415472779369628,1092.2438960175396,1091.4993750282495,0.5109788944004445,0.1006464624231069,0.3048546865697605,0.08907032428803016,0.05376906364701081,1152.7779272204023,29663.90767449197
15.472779369627508,1093.4584956866731,1092.7136478314428,0.5146907781081427,0.10436703836831113,0.30582080475558354,0.08804852560656806,0.05388483261129366,1151.8765855542836,29700.972250350726
15.530085959885387,1094.6864170520055,1093.9409790234633,0.5184556746591625,0.10819886736102514,0.3068027752774762,0.08701002371104608,0.05400143130606452,1150.9615361266622,29737.973399170805
15.587392550143267,1095.9279525452714,1095.1816395144851,0.5222738498108458,0.11214446088456671,0.3078007287788138,0.0859546723615312,0.054118830157267164,1150.032674111141,29774.912041545216
15.644699140401148,1097.1834035267118,1096.4359084682296,0.5261455398220303,0.11620634348062817,0.30881478804470847,0.08488233302855346,0.054236998436852375,1149.0899007708242,29811.78910454322
15.702005730659026,1098.4530803550056,1097.7040734020597,0.5300709500203038,0.1203870492611821,0.30984506752274316,0.08379287538829353,0.05435590427126028,1148.1331238299865,29848.605522061447
15.759312320916907,1099.7373024804424,1098.9864303116913,0.5340502531937446,0.12468911820573296,0.3108916727927755,0.08268617786951643,0.05447551464517704,1147.1622578874171,29885.362235209526
15.816618911174785,1101.0363985025112,1100.2832837665042,0.538083587984162,0.12911509212061115,0.3119547000323076,0.08156212820691167,0.05459579540784291,1146.1772248357388,29922.060192690613
15.873925501432666,1102.3507061616901,1101.5949469464917,0.5421710574102752,0.13366751031261664,0.31303423551441406,0.08042062396389088,0.054716711285043636,1145.1779542581874,29958.700351147447
15.931232091690545,1103.6805740145608,1102.9217458437624,0.5463127401876348,0.1383488835887032,0.3141303588362305,0.07926156934499458,0.054838225786290676,1144.164381372483,29995.28344233085
15.988538681948425,1105.0262339791043,1104.263700716967,0.5505076832797016,0.14316333632286926,0.3152428490166631,0.07808516766886439,0.05496030891276671,1143.1366411644829,30031.82792940296
16.045845272206304,1106.387989739034,1105.6208533544907,0.5547543421778356,0.14811579381326073,0.3163713112303181,0.0768917956823641,0.05508293463409617,1142.0949852125377,30068.361346956244
16.103151862464184,1107.7664016933393,1106.9938019693122,0.5590525709170872,0.15320875582609927,0.3175157574490301,0.07568142558175148,0.05520606549914907,1141.0393978438058,30104.885015444295
16.160458452722064,1109.1620121032263,1108.3831185379834,0.5634022112900878,0.15844466087964934,0.3186761959498689,0.07445403320189974,0.055329662901543904,1139.9698668438039,30141.399749436252
16.217765042979945,1110.5753466408837,1109.789347233227,0.5678030622134451,0.1638259268406819,0.31985262234169565,0.07320960699929441,0.05545368730680422,1138.8863895331122,30177.906386345574
16.275071633237822,1112.0069191817483,1111.2130114944086,0.5722548783807535,0.16935494264938172,0.3210450191148785,0.07194814855513722,0.0555780982574543,1137.7889732176886,30214.40578562618
16.332378223495702,1113.4572356019967,1112.6546197304629,0.5767573691869269,0.17503406018601458,0.3222533552637898,0.07066967300436257,0.055702854385814994,1136.6776355772713,30250.898828063906
16.389684813753583,1114.926796647331,1114.1146697108343,0.5813101974818675,0.1808655859453979,0.32347758585245456,0.06937420952086522,0.05582791342459576,1135.552405092795,30287.38641533809
16.446991404011463,1116.416100100111,1115.593651986556,0.585912978260557,0.1868517724074121,0.3247176515550805,0.0680618018286639,0.05595323221763217,1134.413321492393,30323.86946974448
16.504297994269344,1117.925642358579,1117.092052522324,0.5905652776327942,0.19299480952636083,0.32597347827628964,0.06673250863301647,0.05607876673633437,1133.2604361348187,30360.3489339102
16.56160458452722,1119.455919506964,1118.6103546232814,0.5952666115474345,0.19929681566611335,0.32724497669352176,0.0653864041315057,0.05620447209194332,1132.0938124554282,30396.82577069545
16.6189111747851,1121.0074279746316,1120.1490403222315,0.6000164446069889,0.2057598282871136,0.32853204182288126,0.06402357850334897,0.05633030254968126,1130.9135263973426,30433.300963113208
16.67621776504298,1122.5806648337214,1121.7085912951845,0.6048141890953951,0.2123857946853509,0.32983455264773487,0.06264413833634362,0.05645621154596614,1129.7196667959684,30469.775514210076
16.73352435530086,1124.1761277938094,1123.2894893808214,0.6096592037274,0.219176561881796,0.3311523716596406,0.06124820714591118,0.05658215170081106,1128.5123358391904,30506.250447078328
16.79083094555874,1125.7943149239861,1124.8922167632652,0.6145507926444905,0.2261338665331696,0.3324853444728254,0.05983592582162516,0.056708074833552856,1127.291649474644,30542.72680478407
16.84813753581662,1127.435724140123,1126.5172558613217,0.619488204501579,0.23325932470456875,0.3338332994660173,0.05840745304799132,0.056833931978835295,1126.0577378005144,30579.205650265907
16.9054441260745,1129.1008524740453,1128.1650889608775,0.6244706313011016,0.24055442063983967,0.33519604734446284,0.056962965811032024,0.05695967339819819,1124.8107455297952,30615.688066310886
16.96275071633238,1130.7901951489614,1129.8361976167103,0.6294972075985338,0.24802049595350506,0.336573380817076,0.055502659789168,0.057085248595689704,1123.5508323677188,30652.175155378776
17.02005730659026,1132.5042444789267,1131.5310618512096,0.6345670096468805,0.2556587383435161,0.33796507425511596,0.05402674976626693,0.05721060633119075,1122.278173412017,30688.66803942291
17.077363896848137,1134.2434885781188,1133.2501591498633,0.6396790543857267,0.2634701694058081,0.33937088330184534,0.05253547009997778,0.05733569463056295,1120.992959604371,30725.16785972248
17.134670487106018,1136.0084099347514,1134.9939632948683,0.644832298854087,0.27145563324391286,0.34079054461708835,0.051029075052902474,0.057460460799512586,1119.6953980771132,30761.67577653317
17.191977077363898,1137.7994838152906,1136.7629430230722,0.6500256394014527,0.2796157841678285,0.3422237755599326,0.04950783919218072,0.05758485143328168,1118.3857125615646,30798.192968754855
17.24928366762178,1139.617176496664,1138.557560506668,0.6552579109040665,0.2879510739440192,0.3436702738747275,0.04797205779046831,0.05770881242484879,1117.0641438052235,30834.720633534278
17.30659025787966,1141.461943405401,1140.3782697195115,0.660527886359826,0.29646173999903613,0.34512971750116567,0.04642204709994905,0.057832288975570724,1115.7309498912755,30871.259985693905
17.363896848137536,1143.3342270570652,1142.2255146119935,0.6658342761954389,0.3051477923451057,0.3466017642961819,0.04485814472402408,0.05795522560067599,1114.386406645836,30907.812257174413
17.421203438395416,1145.2344548622023,1144.099727144108,0.6711757277618785,0.3140090008098127,0.3480860518204164,0.04328070992575062,0.0580775661349396,1113.0308080011678,30944.37869634166
17.478510028653297,1147.1630368536187,1146.0013252246747,0.6765508250863059,0.3230448830804735,0.3495821972130839,0.041690123846155405,0.05819925373900775,1111.664466290563,30980.960567149385
17.535816618911177,1149.1203631692601,1147.9307104229026,0.6819580883196991,0.332254691308472,0.3510897969751225,0.04008678982602062,0.05832023090038695,1110.287712638602,31017.559148285138
17.593123209169054,1151.1068014717146,1149.8882655996474,0.6873959735391426,0.3416373999495124,0.35260842687431654,0.038471133602349286,0.058440439436017136,1108.9008972546264,31054.175732131414
17.650429799426934,1153.1226942610358,1151.8743524264346,0.6928628726392007,0.351191693974989,0.3541376418882116,0.036843603468643044,0.058559820493532574,1107.504389702995,31090.811623614456
17.707736389684815,1155.1683559115338,1153.88930864778,0.6983571129785375,0.3609159558321689,0.3556769760775882,0.03520467051698198,0.05867831454770121,1106.09857925367,31127.468138983695
17.765042979942695,1157.2440697366355,1155.9334453455178,0.7038769574908942,0.3708082545238295,0.3572259426217298,0.03355482871021242,0.05879586139937353,1104.6838750961504,31164.146604389443
17.822349570200576,1159.3500848685578,1158.007044025648,0.7094206047102526,0.3808663343938203,0.3587840338384499,0.03189459497634026,0.0589124001712276,1103.2607065816494,31200.848354362595
17.879656160458453,1161.486612878027,1160.110353460292,0.7149861886876706,0.3910876033306265,0.36035072118326694,0.03022450933393214,0.05902786929992555,1101.829523504973,31237.574730163946
17.936962750716333,1163.6538244981039,1162.2435866033145,0.7205717793863281,0.40146912359948533,0.36192545541886195,0.028545134836319007,0.0591422065309533,1100.390796237406,31274.327077947575
17.994269340974213,1165.8518460471662,1164.4069172271033,0.7261753828575139,0.4120076017253279,0.3635076667305278,0.026857057583006366,0.05925534890874525,1098.9450159308583,31311.10674680685
18.051575931232094,1168.080755679444,1166.6004763909687,0.7317949414933858,0.42269937889539283,0.36509676488562215,0.02516088669180496,0.05936723276505703,1097.4926947019192,31347.91508664448
18.10888252148997,1170.3405797561136,1168.8243490032617,0.7374283346715069,0.4335404239101907,0.3666921395383739,0.023457254115491943,0.05947779370935115,1096.0343656874356,31384.753445886632
18.16618911174785,1172.6312887960762,1171.0785699962871,0.7430733791239584,0.4445263248024956,0.36829316046808036,0.021746814543620003,0.05958696661360937,1094.5705831931882,31421.623169025563
18.22349570200573,1174.9527934100113,1173.363120472781,0.748727829566011,0.4556522822450112,0.3698991779237875,0.020030245194696417,0.05969468559754568,1093.101922758909,31458.52559397837
18.280802292263612,1177.304940287684,1175.677923889129,0.7543893795681027,0.46691310488565935,0.3715095230685195,0.018308245503325125,0.0598008840145309,1091.6289811393694,31495.46204930454
18.338108882521492,1179.6875076796007,1178.0228417694768,0.7600556621745984,0.4783032033669486,0.3731235083700243,0.016581536882209938,0.05990549443186219,1090.1523763758053,31532.433851178517
18.39541547277937,1182.1002010661666,1180.39766956946,0.7657242509223567,0.48981658726280214,0.37474042814036607,0.014850862322254304,0.060008448613743125,1088.672747729614,31569.442300217295
18.45272206303725,1184.5426487470847,1182.8021323806834,0.7713926609335524,0.5014468629519521,0.376359559100323,0.013116985961859333,0.06010967750409379,1087.1907555817804,31606.488678139413
18.51002865329513,1187.0143971941964,1185.2358795478333,0.777058349844732,0.5131872306521431,0.3779801606684278,0.011380692855593245,0.06020911121413246,1085.7070813144808,31643.57424411797
18.56733524355301,1189.5149100306517,1187.6984722244865,0.7827187191467664,0.5250304849615202,0.3796014723257,0.009642790488337665,0.0603066791294065,1084.2224260610199,31680.70023109944
18.62464183381089,1192.0436044383423,1190.1892831375806,0.7883711148464714,0.5369690143810205,0.3812226747174209,0.007904132950843891,0.060402311366196566,1082.7374981438402,31717.867842278753
18.681948424068768,1194.6003699522246,1192.706300019622,0.794012840413404,0.5489948314544187,0.3828424002171505,0.006165923773392783,0.060495957615927534,1081.2528525208731,31755.078120168095
18.73925501432665,1197.1910703819879,1195.2300181421572,0.7996382659288969,0.5610934911722945,0.3844516781053583,0.004434475943610789,0.06058777477684032,1079.767665142382,31792.35065296249
18.79656160458453,1199.8991110247011,1197.5759923276514,0.8052353582311178,0.5732371548556903,0.385969481918264,0.002761699908280574,0.06068048970676871,1078.2603911480653,31829.74050784002
18.85386819484241,1203.2556747568062,1199.179676305839,0.8107917719993059,0.5854072178153609,0.3870589450101812,0.0013582387745033411,0.06078667894241366,1076.6277382466224,31867.26255621185
18.911174785100286,1208.3882889293673,1200.419380198836,0.8162842140843117,0.5976225456111657,0.3874132622527159,0.0004165465566596237,0.06091787013820959,1074.7788195579171,31904.961506882442
18.968481375358166,1216.586355426619,1202.4939263813703,0.8216873493786072,0.6100078845602632,0.3868790730139511,3.2835098875375145e-05,0.06107983950803524,1072.6708585065896,31942.938095391943
19.025787965616047,1228.6655395266735,1207.836696069387,0.8269848006204278,0.6228249995191234,0.3857885283733725,8.633124276810459e-08,0.061259927574695096,1070.4106838821708,31981.3512091859
19.083094555873927,1244.2007695408245,1217.8135267562227,0.832184381545982,0.6364650520580816,0.38464789471957106,-4.899012391778367e-11,0.06143867233125838,1068.1493405997064,32020.381791591084
19.140401146131808,1262.5116076585798,1231.6254283446744,0.8372998719818767,0.6512965154072511,0.38350191557330876,-1.3832319370637651e-17,0.06161389020389066,1065.8890197585406,32060.186592207854
19.197707736389685,1283.068957294657,1248.4892959686824,0.8423405568096908,0.6676125194033716,0.3823445853979849,8.484356173881369e-19,0.06178513833382797,1063.618699814232,32100.894121071593
19.255014326647565,1305.468674291373,1267.8063956199899,0.8473119947947616,0.685633901842067,0.38117125449068817,9.946424163109177e-19,0.06195174182830918,1061.3304164692963,32142.611261752456
19.312320916905446,1329.401852890515,1289.122283738538,0.8522170577834908,0.705505352430035,0.3799786400013513,5.616681072307838e-19,0.062112801623950914,1059.0190074641048,32185.428464275315
19.369627507163326,1354.629483200006,1312.092274856203,0.8570567626883241,0.7272879003533496,0.3787647867098463,8.920951128898015e-19,0.06226720658018415,1056.6819829510644,32229.423688438153
19.426934097421206,1380.9618882200261,1336.4535669021527,0.8618308883287928,0.7509500702503654,0.37752908788971506,-2.3870879102413436e-19,0.062413641154946214,1054.3195099291788,32274.665181314285
19.484240687679083,1408.241814938457,1362.002396043583,0.8665384267231703,0.7763591551849733,0.3762723389267597,1.6792558087786063e-19,0.06255058937051831,1051.934456154279,32321.21336273763
19.541547277936964,1436.3305236958718,1388.5751977607251,0.8711779054112245,0.8032739058260361,0.3749968001344968,-3.0177654710627984e-19,0.06267633698880228,1049.532448202222,32369.12201464441
19.598853868194844,1465.0965910737011,1416.0336066848158,0.8757476068886269,0.8313370871934913,0.37370628311451537,-5.070019353762489e-19,0.0627889697977441,1047.121970624093,32418.438825357553
19.656160458452725,1494.4066174155946,1444.2522304941297,0.8802457175760963,0.8600673903680065,0.37240626146136935,-6.151951299691776e-19,0.06288636857207026,1044.7145064270255,32469.205436077973
19.7134670487106,1524.1174389914402,1473.1088048025042,0.8846704248300975,0.8888494361671584,0.3711040177492185,-3.8813336431024324e-19,0.06296619984260021,1042.324742216255,32521.457081808214
19.770773638968482,1554.069084670031,1502.4762295744595,0.8890199785027245,0.91691741885718,0.369808882268338,-5.06246915685683e-19,0.06302589703996667,1039.9709384948453,32575.22181529842
19.828080229226362,1584.0776561040466,1532.216035181667,0.8932927292149042,0.9433269826384427,0.36853263193123215,-4.409359536069066e-19,0.06306262615448889,1037.6755904066306,32630.51938773953
19.885386819484243,1613.926584659864,1562.1732252234947,0.8974871528170218,0.9668989516144144,0.36729026343966875,-2.1416003774867848e-19,0.06307321549183781,1035.466768249395,32687.35975927947
19.942693409742123,1643.351585619449,1592.1733933830537,0.9016018739553749,0.9860771185472191,0.3661019042869971,-1.2216900503104194e-19,0.0630539753819616,1033.381518768948,32745.741014132174
20.0,1672.0,1622.035606274624,0.9056357178981282,0.9983865322379263,0.365,1.771833716656897e-20,0.063,1031.478833255714,32805.64628985449
