z,T,t,fs,fl,x,y,w,rhob,p
0.0,634.4167894269522,505.0,0.0,0.0,0.1609076808987417,0.23690029046969782,0.04773139993155951,1268.0,14330.0
0.05012531328320802,673.8328603090457,565.379652205006,0.0001765806408845692,0.0,0.16096246199025674,0.23684550937150597,0.04773139992100127,1267.961816196419,14388.459158605989
0.10025062656641603,706.6139470526128,615.2771944934494,0.0004682758618907592,0.0,0.16105295525626143,0.23675501599817245,0.04773139975127817,1267.8987399286555,14451.81360475751
0.15037593984962405,734.0632802204768,656.8457077809991,0.0008815581661226113,0.0,0.1611811678648368,0.23662680259686,0.04773139849769363,1267.8093710750054,14519.22397990777
0.20050125313283207,757.1735037445688,691.6948637119835,0.001414314483618838,0.0,0.16134644142988142,0.23646152551216088,0.04773139293193355,1267.694164793464,14589.976936722696
0.2506265664160401,776.7168564204673,721.0587862564445,0.002059852131462304,0.0,0.1615466930206996,0.23626126290292304,0.04773137550809948,1267.554564167297,14663.46747941236
0.3007518796992481,793.3044691750641,745.9027630585614,0.0028094401773487397,0.0,0.16177920238480242,0.23602872665894403,0.04773133300196641,1267.3924499135746,14739.183063763858
0.3508771929824561,807.4267689518592,766.9940556151174,0.003653769951916353,0.0,0.16204106523990858,0.23576680924064927,0.04773124671923224,1267.2098246762978,14816.689748293084
0.40100250626566414,819.4818592630799,784.9505803058204,0.004583739599730653,0.0,0.16232943828000135,0.23547833982401387,0.0477310943156481,1267.0086443742796,14895.620314548783
0.45112781954887216,829.7959827829321,800.2753847707007,0.005590843109153813,0.0,0.16264166227842816,0.2351659629258466,0.0477308525302419,1266.7907355777675,14975.664150466986
0.5012531328320802,838.6386121379422,813.3816879049455,0.006667336109424821,0.0,0.16297531592809947,0.2348320862895194,0.047730499914663556,1266.5577611547958,15056.558664216911
0.5513784461152882,846.2338004634335,824.6114645169423,0.007806279388034485,0.0,0.16332823113555495,0.23447886688184713,0.047730018874653155,1266.3112119816915,15138.082007085635
0.6015037593984962,852.7688675734678,834.2495009846566,0.009001518002545464,0.0,0.16369848748341492,0.2341082171131298,0.04772939674929514,1266.0524120524265,15220.04690795136
0.6516290726817042,858.4011491506661,842.5342026957662,0.010247628728793826,0.0,0.16408439608496136,0.23372182110258646,0.047728626000754205,1265.7825299466094,15302.295448577745
0.7017543859649122,863.264052160693,849.6670762798282,0.011545919789328996,0.0,0.16448636050007126,0.233319273478935,0.047727703765900374,1265.5012812021057,15384.69465047163
0.7518796992481203,867.471091020134,855.8190779953904,0.012904419036081718,0.0,0.16490687232328827,0.23289808325442368,0.047726631005611815,1265.2069304034537,15467.132977372201
0.8020050125313283,871.1154166908473,861.1304865884379,0.014303524081721818,0.0,0.1653398539456342,0.23246433054185894,0.04772541168054205,1264.9037185450195,15549.516682583991
0.8521303258145363,874.2780178320636,865.7229092468633,0.01574019651871654,0.0,0.1657843683229871,0.23201895623223776,0.047724051874995,1264.5923059921233,15631.767175885403
0.9022556390977443,877.0278853452306,869.6997768646497,0.017211723236868023,0.0,0.16623958050172064,0.2315627999765016,0.047722559017896383,1264.273283506085,15713.818839994658
0.9523809523809523,879.4238960127173,873.1492364686445,0.018715749283584358,0.0,0.16670476727308267,0.23109659014411865,0.04772094127072961,1263.947164802509,15795.617074620626
1.0025062656641603,881.5163665053004,876.1465284725731,0.020250232824962452,0.0,0.1671793027885641,0.23062095791187767,0.04771920705971724,1263.6143960336708,15877.116633889056
1.0526315789473684,883.3483495739686,878.7559623230576,0.021813405390499044,0.0,0.16766264592752925,0.23013644968117197,0.04771736473571582,1263.2753641984725,15958.280212410451
1.1027568922305764,884.9567201351842,881.032566657203,0.02340373693752433,0.0,0.1681543292533426,0.22964353797345907,0.047715422339552345,1262.9304045680653,16039.077242500169
1.1528822055137844,886.3730889059817,883.0234736081051,0.02501990524313414,0.0,0.16865394938530173,0.22914263096236456,0.047713387450309015,1262.5798072212283,16119.482870812337
1.2030075187969924,887.6245735996723,884.7690844679396,0.026660769142135807,0.0,0.16916115861917191,0.22863408079692432,0.04771126709645029,1262.2238227825856,16199.477087494213
1.2531328320802004,888.734451811852,886.3040544370815,0.028325345160099113,0.0,0.16967565764157477,0.2281181908601059,0.047709067713018055,1261.8626674519592,16279.04398505458
1.3032581453634084,889.7227151543605,887.6581268720842,0.03001278712997011,0.0,0.17019718919871643,0.2275952220936637,0.047706795131514546,1261.496527406503,16358.1711275915
1.3533834586466165,890.6065406049357,888.8568417409898,0.03172236842263152,0.0,0.1707255325956527,0.2270653985065968,0.047704454592138915,1261.1255626498735,16436.84901394331
1.4035087719298245,891.4006921953095,889.9221385025112,0.03345346646288296,0.0,0.17126049891730002,0.22652891197107933,0.04770205077059826,1260.7499103752027,16515.070620797025
1.4536340852130325,892.117863886086,890.8728700556827,0.03520554924083894,0.0,0.1718019268761748,0.22598592639726206,0.04769958781376713,1260.3696879014458,16592.831013881347
1.5037593984962405,892.7689726429825,891.7252415437924,0.036978163563965154,0.0,0.1723496792041864,0.22543658136700967,0.04769706938007105,1259.984995235924,16670.12701714698
1.5538847117794485,893.3634092478751,892.4931854950449,0.03877092482626425,0.0,0.1729036395166016,0.22488099529662278,0.047694498681695036,1259.5959173098097,16746.956931336445
1.6040100250626566,893.909253152698,893.1886828877957,0.040583508099610206,0.0,0.17346370958594515,0.22431926818952513,0.04769187852663283,1259.2025259276147,16823.320294634006
1.6541353383458646,894.4134566876976,893.8220381931246,0.04241564037686335,0.0,0.17402980697183984,0.2237514840320856,0.04768921135927054,1258.804881466823,16899.217679168814
1.7042606516290726,894.8820031114581,894.4021151827301,0.044267093818022726,0.0,0.17460186295993632,0.2231777128789112,0.04768649929869169,1258.4030343593708,16974.650518065126
1.7543859649122806,895.3200423008296,894.9365392358857,0.04613767986981111,0.0,0.17517982076932595,0.22259801266792406,0.047683744174242544,1257.9970263827545,17049.620958521264
1.8045112781954886,895.7320073049648,895.4318710038494,0.04802724414574083,0.0,0.1757636339932189,0.22201243080030753,0.047680947558144095,1257.5868917850692,17124.131737067193
1.8546365914786966,896.1217145065233,895.8937555580673,0.04993566196824562,0.0,0.17635326524232292,0.22142100551585553,0.04767811079510654,1257.1726582652398,17198.18607371959
1.9047619047619047,896.4924497283712,896.3270505338911,0.051862834487139575,0.0,0.17694868496439456,0.22082376709029808,0.04767523502901523,1256.7543478270154,17271.787582238092
1.9548872180451127,896.8470422826441,896.7359362636414,0.0538086852997151,0.0,0.17754987041692094,0.22022073887773344,0.047672321226828934,1256.3319775229634,17344.940194098923
2.0050125313283207,897.1879286703745,897.1240104550718,0.055773157507418854,0.0,0.17815680477291657,0.21961193821829794,0.047669370199873266,1255.9055601026232,17417.648094154087
2.0551378446115285,897.5172073954983,897.4943696001203,0.057756211152430376,0.0,0.17876947634243825,0.21899737722860088,0.04766638262273458,1255.475104577196,17489.91566624433
2.1052631578947367,897.8366861502212,897.8496789832183,0.059757820984769186,0.0,0.17938787789469202,0.21837706349018327,0.04766335904996666,1255.0406167115589,17561.74744729003
2.155388471177945,898.1479224540528,898.1922328892207,0.06177797451690773,0.0,0.18001200606757478,0.21775100064929293,0.04766029993082103,1254.6020994530234,17633.148088602586
2.2055137844611528,898.4522586822782,898.5240063805354,0.06381667032838903,0.0,0.18064186085319875,0.21711918893955442,0.04765720562220366,1254.159553305058,17704.12232334641
2.2556390977443606,898.7508522984301,898.8466998146781,0.06587391658773337,0.0,0.18127744514941982,0.2164816256376347,0.047654076400048956,1253.7129766531596,17774.674939241602
2.305764411027569,899.0447020080339,899.1617771013655,0.06794972976305352,0.0,0.1819187643686624,0.2158383054607232,0.04765091246928906,1253.262366049141,17844.810755736406
2.355889724310777,899.3346704778525,899.4704985468921,0.07004413349633816,0.0,0.1825658260964187,0.21518922091355333,0.047647713972581836,1252.8077164593499,17914.53460499883
2.406015037593985,899.6215042186938,899.7739489972815,0.07215715761935285,0.0,0.18321863979271513,0.21453436259176611,0.04764448099794852,1252.3490214816652,17983.85131618415
2.4561403508771926,899.9058512166429,900.0730618642897,0.07428883729155114,0.0,0.18387721653058686,0.2138737194476646,0.047641213585459044,1251.8862735355835,18052.76570253233
2.506265664160401,900.1882769286374,900.3686394920439,0.07643921224225964,0.0,0.18454156876617225,0.21320727902382722,0.047637911733094965,1251.4194640293106,18121.28255094312
2.556390977443609,900.469279353045,900.6613701867606,0.07860832610061326,0.0,0.18521171013541038,0.21253502765967666,0.04763457540191319,1250.9485835074915,18189.40661377248
2.606516290726817,900.7493040763677,900.9518420739685,0.08079622579709891,0.0,0.1858876552724424,0.21185695067598045,0.04763120452063464,1250.4736217831392,18257.142602701548
2.6566416040100247,901.0287605347773,901.2405537495605,0.08300296101983581,0.0,0.18656941964459753,0.2111730325424871,0.0476277989897897,1249.994568057486,18324.495184662883
2.706766917293233,901.308041293727,901.5279214347682,0.08522858370644604,0.0,0.18725701939815503,0.2104832570346021,0.047624358685572556,1249.5114110319773,18391.46897998725
2.756892230576441,901.5875470587356,901.8142820263838,0.08747314754800262,0.0,0.18795047120774913,0.20978760738635632,0.04762088346359355,1249.0241390175993,18458.06856319014
2.807017543859649,901.8677215461033,902.0998911071875,0.0897367074746199,0.0,0.18864979212018332,0.20908606644905603,0.047617373162775284,1248.5327400482522,18524.298467194643
2.8571428571428568,902.1491024408416,902.3849148888811,0.0920193190832093,0.0,0.18935499938067665,0.2083786168677942,0.04761382760971246,1248.0372020068885,18590.163192349904
2.907268170426065,902.4323975263336,902.669415944654,0.09432103796042565,0.0,0.19006611022728703,0.20766524129031888,0.04761024662387531,1247.5375127747739,18655.667222426775
2.9573934837092732,902.7185983066556,902.9533363880055,0.09664191886076494,0.0,0.1907831416413522,0.20694592262061856,0.04760663002397526,1247.033660412712,18720.815050914738
3.007518796992481,903.0091453389257,903.2364931792024,0.09898201475654841,0.0,0.1915061100590004,0.20622064431207363,0.047602977635335574,1246.52563337052,18785.611222351934
3.057644110275689,903.3061552901955,903.5186260003087,0.10134137596368217,0.0,0.192235031105526,0.20548939063729224,0.04759928929654857,1246.013420679731,18850.060394694996
3.107769423558897,903.6126995183248,903.7995852032922,0.1037200500075564,0.0,0.19296991955406032,0.2047521467296847,0.04759556485986408,1245.4970119828051,18914.16742868628
3.1578947368421053,903.9330740979926,904.0797998944823,0.10611808376652053,0.0,0.19371078997473018,0.20400889792246168,0.04759180417246519,1244.9763970593422,18977.93750629459
3.208020050125313,904.2729199747945,904.3611395665571,0.10853553052217496,0.0,0.19445765887158775,0.20325962757383753,0.047588007016605566,1244.4515642686695,19041.37626911838
3.258145363408521,904.6389873666125,904.6480184163063,0.11097246469491331,0.0,0.19521054914974867,0.2025043125210925,0.047584172985034645,1243.9224972950399,19104.4899480525
3.308270676691729,905.0384061349876,904.9480881212262,0.11342900415981814,0.0,0.19596949688038315,0.20174291619566254,0.047580301291420525,1243.389170217979,19167.285435818605
3.3583959899749374,905.4775939386137,905.2716548993632,0.11590533376569766,0.0,0.19673455842807133,0.20097538136682647,0.04757639056648464,1242.8515423146234,19229.77025403444
3.408521303258145,905.9612317633178,905.6296901229351,0.11840171883994315,0.0,0.19750581453559882,0.20020162597557015,0.047572438729418284,1242.3095550688572,19291.952400596972
3.458646616541353,906.4917392012262,906.0314581978488,0.12091850032779894,0.0,0.19828336882857148,0.19942154463694478,0.047568442998914634,1241.7631332284616,19353.840114375784
3.508771929824561,907.0693599588807,906.4830073598602,0.12345607208832306,0.0,0.19906734089128153,0.19863501565221564,0.04756440003232011,1241.2121897910354,19415.441623879942
3.5588972431077694,907.6926495874952,906.9869291467567,0.1260148470756862,0.0,0.19985785594389796,0.1978419114579572,0.04756030612528811,1240.6566334265567,19476.7649369839
3.6090225563909772,908.3590772793661,907.5429844042721,0.12859521806084057,0.0,0.2006550328179551,0.19704211077200504,0.04755615740377018,1240.0963770763221,19537.817697627823
3.659147869674185,909.0655502176986,908.1490154530128,0.13119751265732232,0.0,0.20145897012598624,0.1962355125171886,0.04755194997162474,1239.5313477591976,19598.60710793049
3.7092731829573933,909.8087902551337,908.8017728852922,0.1338219351371116,0.0,0.20226972828810713,0.19542205385566427,0.04754768000692395,1238.9614992062207,19659.13990059108
3.7593984962406015,910.585565743632,909.4975220355304,0.13646847924031033,0.0,0.2030873025214613,0.19460173723341806,0.04754334381562435,1238.3868307440955,19719.422343995386
3.8095238095238093,911.3928066875999,910.2324274517479,0.13913678457442816,0.0,0.20391157829984244,0.19377467493578737,0.04753893785551123,1237.8074183605536,19779.46026509454
3.859649122807017,912.2276300728121,911.0027589537965,0.14182589036100574,0.0,0.20474225494409168,0.19294116550088855,0.04753445874224623,1237.2234679574997,19839.25907873445
3.9097744360902253,913.0872897949623,911.8049629767867,0.1445338092739422,0.0,0.20557871337782116,0.1921018259623809,0.04752990324697873,1236.6354075029008,19898.82381475081
3.9598997493734336,913.9690491198536,912.6356260399093,0.14725679656445198,0.0,0.20641978932586696,0.19125781864902539,0.04752526829320428,1236.044045073477,19958.159135129026
4.010025062656641,914.8699559793299,913.4913362582254,0.1499881294101085,0.0,0.20726339453274933,0.19041122996830862,0.04752055096006113,1235.4508328100724,20017.269332680753
4.060150375939849,915.7864881624901,914.3684309549966,0.15271617553229608,0.0,0.2081059174388224,0.18956566974158887,0.04751574850018982,1234.8582845696176,20076.158300203326
4.110275689223057,916.7140457249742,915.2626163218255,0.15542164970764036,0.0,0.20894137185667244,0.1887271225545323,0.04751085838215643,1234.270569200379,20134.82945628707
4.160401002506266,917.6463488632005,916.1684892687094,0.15807453810134525,0.0,0.20976044257067086,0.1879049022067194,0.047505878368167234,1233.6941756667718,20193.285615356108
4.2105263157894735,918.5750121043238,917.0791259233836,0.16063256739037898,0.0,0.21055001029588238,0.1871121268273405,0.04750080663200393,1233.1382441508883,20251.52880542505
4.260651629072681,919.4898461306317,917.9861005577294,0.1630447460520794,0.0,0.21129425057820134,0.18636462006555932,0.047495641902079486,1232.6138003627655,20309.560078991475
4.31077694235589,920.3803584277715,918.8803070461316,0.16526244261020645,0.0,0.21197807150865278,0.18567747345230626,0.047490383581709705,1232.131360046467,20367.379417995493
4.360902255639098,921.2380204554114,919.7534391782103,0.16725399918602532,0.0,0.21259164852787282,0.18506051161636183,0.04748503178158594,1231.6977689636226,20424.985838599405
4.4110275689223055,922.0578958036288,920.5993075790944,0.16901300997149427,0.0,0.21313299342179415,0.18451572323471943,0.04747958723444634,1231.3144127095502,20482.377699684064
4.461152882205513,922.8386909912402,921.4142813804339,0.17055510695192933,0.0,0.21360695695747503,0.18403825829164744,0.047474051128881076,1230.9779116773723,20539.55308842665
4.511278195488721,923.5816862864037,922.1969332788116,0.17190810884958826,0.0,0.21402217197036993,0.1836194848781218,0.04746842493020997,1230.682251152139,20596.510137753405
4.56140350877193,924.289520431234,922.9473962976339,0.17310289358259975,0.0,0.21438822090027668,0.18324982156308922,0.047462710233792865,1230.4207549697935,20653.24721668467
4.611528822055138,924.9653416032387,923.666788716359,0.17416809377854447,0.0,0.21471398964355434,0.182920383475684,0.04745690866138747,1230.187232502423,20709.76301316316
4.661654135338345,925.6123492904136,924.3568050664596,0.1751280699905265,0.0,0.2150070385250829,0.18262361129024668,0.047451021793150125,1229.97641689269,20766.056552008697
4.711779448621554,926.2335883758689,925.0194490724613,0.17600270156095416,0.0,0.21527353732958537,0.18235333616784527,0.04744505112471802,1229.7840102538828,20822.12718138904
4.761904761904762,926.8318735880881,925.6568632098557,0.17680792027547393,0.0,0.215518430850955,0.18210461419040877,0.047438998041075604,1229.6065682582469,20877.974546798923
4.81203007518797,927.4097731448753,926.2712200552395,0.1775564303130803,0.0,0.21574566226851152,0.18187350297501934,0.047432863801624016,1229.4413444467707,20933.59856165788
4.8621553884711775,927.9696213942836,926.8646529554694,0.17825841856014907,0.0,0.21595838308295034,0.18165685173350396,0.04742665999658381,1229.2861366270172,20988.999378457815
4.912280701754385,928.5135909004358,927.4392218383002,0.17892244981301508,0.0,0.2161591235885073,0.18145213081096703,0.04742051589543686,1229.1390933038006,21044.17736484907
4.962406015037594,929.0436220831734,927.996901567861,0.17955523029437886,0.0,0.2163499307419544,0.1812572938230643,0.04741446719265893,1228.9987648218414,21099.133081570242
5.012531328320802,929.5614513606811,928.5395426459086,0.18016214609491324,0.0,0.21653248193578029,0.18107066386726817,0.04740850927163981,1228.8639869196631,21153.86725660515
5.0626566416040095,930.0686458033815,929.0688622599151,0.18074765615402186,0.0,0.21670816600301146,0.1808908525198721,0.047402638150805275,1228.7337957530212,21208.380764606398
5.112781954887218,930.5666198265592,929.5864447552814,0.18131548955456028,0.0,0.21687814449452097,0.18071669856278402,0.04739685043863317,1228.6073852354536,21262.674608816124
5.162907268170426,931.0566504402798,930.0937455590613,0.18186879653321378,0.0,0.21704339859356275,0.18054722107335644,0.04739114329028957,1228.484074387589,21316.749904920085
5.213032581453634,931.5398911356546,930.5920973009108,0.1824102646599496,0.0,0.21720476522034318,0.18038158332425278,0.0473855143664626,1228.3632822183545,21370.60786664992
5.263157894736842,932.017384505761,931.0827172431882,0.18294220880180587,0.0,0.2173629649991765,0.18021906482067182,0.047379961794747905,1228.244508275009,21424.249792962255
5.313283208020049,932.4900736980337,931.5667153932853,0.1834666412821984,0.0,0.21751862407714564,0.18005903948591637,0.04737448413377447,1228.1273174755677,21477.677056638102
5.363408521303258,932.9588127893778,932.0451028602258,0.18398532699950898,0.0,0.21767229127221502,0.17990095851730042,0.04736908034013921,1228.01132819345,21530.89109415935
5.413533834586466,933.4243761684781,932.5188001540517,0.18449982704594342,0.0,0.2178244516494732,0.17974433681368143,0.04736374973813142,1227.8962028286137,21583.893396731688
5.463659147869674,933.8874670050772,932.9886452263282,0.18501153347656588,0.0,0.21797553734779082,0.1795887421523098,0.0473584919921672,1227.7816402921464,21636.685502335044
5.513784461152882,934.3487248804802,933.4554011216148,0.1855216972139779,0.0,0.21812593627308327,0.17943378649880004,0.047353307081812644,1227.6673699749642,21689.268988693235
5.56390977443609,934.8087326499785,933.9197631620456,0.1860314505937491,0.0,0.21827599912536294,0.17927911898303897,0.04734819527924841,1227.5531468751608,21741.6454670646
5.614035087719298,935.2680226037029,934.382365624231,0.18654182569512354,0.0,0.21842604511491012,0.17912442018570923,0.04734315712901265,1227.4387476365132,21793.816576764624
5.664160401002506,935.7270819884149,934.8437878939147,0.18705376933380768,0.0,0.2185763666398366,0.1789693974631636,0.04733819342985301,1227.3239673085614,21845.78398034016
5.7142857142857135,936.1863579493056,935.3045601023589,0.18756815539679944,0.0,0.218727233136245,0.17881378109946244,0.04733330521851679,1227.2086166812296,21897.54935932293
5.764411027568922,936.646261946653,935.7651682606338,0.1880857950461251,0.0,0.21887889426468107,0.17865732112189134,0.047328493755312555,1227.0925200800848,21949.11441049719
5.81453634085213,937.1071736981648,936.2260589159524,0.1886074452030859,0.0,0.21903158256080582,0.17849978465204686,0.04732376051128216,1226.9755135332289,22000.48084262328
5.864661654135338,937.5694446947521,936.6876433595592,0.1891338156421162,0.0,0.2191855156526091,0.17834095369018657,0.04731910715682967,1226.8574432386815,22051.650373564837
5.9147869674185465,938.0334013329215,937.1503014177531,0.18966557495114436,0.0,0.21934089812406457,0.1781806232529576,0.047314535551665066,1226.7381642767143,22102.624727773346
5.964912280701754,938.4993477039822,937.614384859056,0.19020335556701043,0.0,0.21949792309011903,0.17801859979962587,0.0473100477359288,1226.6175395220519,22153.405634088413
6.015037593984962,938.9675680766547,938.0802204503256,0.19074775805265892,0.0,0.21965677353491367,0.17785469989492317,0.04730564592237411,1226.4954387198995,22203.994823817142
6.06516290726817,939.4383291060155,938.5481126934438,0.1912993547485558,0.0,0.2198176234544882,0.17768874906727455,0.04730133248949391,1226.3717376971729,22254.394029059848
6.115288220551378,939.911881799534,939.0183462733077,0.19185869291177313,0.0,0.21998063883930977,0.17752058082707523,0.04729710997548868,1226.246317684402,22304.60498125338
6.165413533834586,940.3884632672795,939.49118824565,0.1924262974303979,0.0,0.2201459785239545,0.17735003581770215,0.04729298107298134,1226.1190647293722,22354.629409906425
6.215538847117794,940.8682982808289,939.9668899913365,0.19300267318578615,0.0,0.22031379492656053,0.17717696107665093,0.047288948624393645,1225.9898691868232,22404.469041504355
6.265664160401002,941.3516006634262,940.4456889620391,0.19358830712587807,0.0,0.22048423469777423,0.17700120938708558,0.04728501561790658,1225.858625270549,22454.125598563816
6.315789473684211,941.8385745310533,940.9278102398396,0.19418367009756263,0.0,0.2206574392941762,0.17682263870482387,0.0472811851839352,1225.725230657527,22503.60079881959
6.365914786967418,942.3294154022444,941.4134679314537,0.1947892184796702,0.0,0.22083354548917353,0.17664111164777868,0.04727746059205474,1225.5895861350893,22552.89635452849
6.416040100250626,942.8243111926948,941.9028664159317,0.19540539565188564,0.0,0.22101268583238767,0.17645649503683286,0.0472738452483214,1225.4515952835186,22602.01397187677
6.466165413533834,943.323443108571,942.3962014626645,0.19603263332617032,0.0,0.22119498906585786,0.17626865947983444,0.04727034269293667,1225.3111641883131,22650.955350479435
6.516290726817042,943.8269864511686,942.8936612349847,0.19667135276482478,0.0,0.22138058050460918,0.1760774789911674,0.0472669565982093,1225.1682011769178,22699.722182960973
6.5664160401002505,944.3351113439154,943.3954271929459,0.19732196590380988,0.0,0.2215695823874194,0.17588283064106916,0.047263690766773295,1225.0226165758925,22748.316154608674
6.616541353383458,944.8479833914373,943.901674907409,0.19798487639667325,0.0,0.2217621142025959,0.17568459422988766,0.04726054913002472,1224.8743224852062,22796.738943090502
6.666666666666666,945.3657642794839,944.412574796362,0.1986604805933182,0.0,0.2219582929932257,0.17548265198281796,0.047257535746743136,1224.7232325665782,22844.99221823074
6.716791979949875,945.8886123226665,944.9282927927054,0.19934916846005807,0.0,0.22215823364393764,0.17527688826308324,0.047254654801867066,1224.5692618444796,22893.077641837273
6.7669172932330826,946.4166829670133,945.4489909521666,0.20005132445245563,0.0,0.2223620491527815,0.17506718929995663,0.047251910605395395,1224.4123265173087,22940.996867575326
6.81704260651629,946.9501292526867,945.9748280085428,0.20076732834503166,0.0,0.22256985088952413,0.17485344293032795,0.047249307591388665,1224.2523437778564,22988.75154088291
6.867167919799498,947.489102241913,946.5059598828069,0.20149755602373173,0.0,0.22278174884221966,0.1746355383519584,0.047246850317046764,1224.089231641798,23036.343298923948
6.917293233082706,948.033751416131,947.0425401515669,0.20224238024332686,0.0,0.22299785185275484,0.1744133658877245,0.047244543461840725,1223.9229087837305,23083.773770575535
6.967418546365915,948.5842250461196,947.5847204798291,0.2030021713534769,0.0,0.22321826784255308,0.17418681675966877,0.0472423918266779,1223.7532943799602,23131.04457644605
7.017543859649122,949.1406705380086,948.1326510221555,0.20377729799405475,0.0,0.22344310402864395,0.17395578287265215,0.04724040033308095,1223.580307957909,23178.157328921392
7.06766917293233,949.70323475808,948.6864807960171,0.20456812776275787,0.0,0.2236724671310592,0.17372015660664614,0.0472385740223621,1223.4038692514812,23225.11363223678
7.117794486215539,950.2720643382539,949.2463580302484,0.20537502785345407,0.0,0.22390646357109317,0.1734798306181295,0.04723691805477464,1223.2238980627374,23271.915082571904
7.167919799498747,950.8473059642821,949.8124304913532,0.20619836566650757,0.0,0.22414519966083307,0.17323469765018332,0.04723543770862447,1223.0403141295926,23318.563268167396
7.2180451127819545,951.4291066483175,950.3848457899588,0.20703850939175025,0.0,0.2243887817841826,0.17298465035106078,0.047234138379324865,1222.8530369994085,23365.059769460808
7.268170426065162,952.0176139871021,950.963751669312,0.20789582856323957,0.0,0.22463731656913094,0.17272958110148168,0.04723302557837757,1222.661985908658,23411.406159240407
7.31829573934837,952.6129764070724,951.5492962775693,0.20877069458661238,0.0,0.22489091105153441,0.17246938185038221,0.04723210493226404,1222.4670796684868,23457.604002815333
7.368421052631579,953.2153433972377,952.1416284252135,0.2096634812381004,0.0,0.2251496728301368,0.17220394395939576,0.04723138218123055,1222.2682365563794,23503.654858200778
7.4185463659147866,953.8248657307137,952.7408978288429,0.21057456513532674,0.0,0.22541371021288162,0.17193315805601006,0.04723086317795093,1222.065374213899,23549.560276316734
7.468671679197994,954.4416956758892,953.3472553425387,0.21150432618143902,0.0,0.2256831323550153,0.17165691389490262,0.04723055388605084,1221.8584095501642,23595.321801199374
7.518796992481203,955.0659871974643,953.9608531774666,0.212453147979893,0.0,0.2259580493881627,0.17137510022827201,0.04723046037847682,1221.6472586516488,23640.94097022384
7.568922305764411,955.6978961485996,954.5818451109294,0.21342141822443184,0.0,0.2262385725418015,0.17108760468373782,0.04723058883569405,1221.4318366973139,23686.419314337443
7.619047619047619,956.3375804538725,955.2103866850829,0.214409529058874,0.0,0.22652481425547938,0.17079431365146625,0.04723094554369613,1221.2120578802446,23731.758358302453
7.669172932330826,956.985200284619,955.8466353965965,0.21541787741461324,0.0,0.22681688828424224,0.17049511217805122,0.04723153689181001,1220.9878353340732,23776.9596209475
7.719298245614034,957.640918226074,956.4907508772485,0.21644686531897464,0.0,0.22711490979516122,0.1701898838692638,0.04723236937027938,1220.7590810656811,23822.024615426813
7.769423558897243,958.3048994376397,957.1428950665061,0.21749690018129328,0.0,0.2274189954571054,0.16987851079952135,0.04723344956760941,1220.5257058926845,23866.954849486672
7.819548872180451,958.9773118062847,957.8032323763669,0.21856839505434952,0.0,0.22772926352304163,0.16956087342879536,0.04723478416765544,1220.287619386221,23911.751825738214
7.8696741854636585,959.65832609362,958.4719298490211,0.21966176887290018,0.0,0.22804583390541672,0.16923685052640153,0.04723637994643858,1220.044729818659,23956.417041936074
7.919799498746867,960.3481160772019,959.1491573078923,0.22077744667099825,0.0,0.22836882824516322,0.1689063191011299,0.047238243768670474,1219.7969441158618,24000.95199126232
7.969924812030075,961.0468588694655,959.8350876130872,0.22191586099842703,0.0,0.2286983703532671,0.16856915395877312,0.04724038258396561,1219.544167550121,24045.35816261899
8.020050125313283,961.7547260946416,960.5298912542404,0.22307739357414985,0.0,0.22903456809561712,0.16822524581654524,0.04724280342298896,1219.2863163563877,24089.63704064311
8.070175438596491,962.4719093906264,961.2337513075455,0.2242625487896558,0.0,0.22937756727066247,0.16787444742438856,0.04724551339241727,1219.0232802130183,24133.790106167744
8.120300751879698,963.1985969728507,961.946851042949,0.22547178258338957,0.0,0.22972749847467208,0.1675166266982526,0.047248519669954255,1218.75495924471,24177.818837057348
8.170426065162907,963.9349796475891,962.6693765065685,0.2267055510298922,0.0,0.2300844921917606,0.1671516516292731,0.047251829499831706,1218.4812535149022,24221.724708093214
8.220551378446114,964.6812519556028,963.4015172296245,0.22796431758182514,0.0,0.23044868104581215,0.16677938803075976,0.047255450187173,1218.2020614588273,24265.509191269448
8.270676691729323,965.4376122940922,964.1434663674669,0.22924855309873807,0.0,0.23082019981290192,0.16639969952463537,0.04725938909194363,1217.9172798763118,24309.17375609947
8.320802005012531,966.2042630331028,964.895420830111,0.230558735871133,0.0,0.23119918543257253,0.1660124475289733,0.047263653622477975,1217.626803925553,24352.719869925364
8.370927318295738,966.9814106273375,965.6575814056745,0.23189535163939787,0.0,0.2315857770178494,0.16561749124674768,0.047268251228562444,1217.3305271179652,24396.14899822966
8.421052631578947,967.7692657241923,966.4301528778893,0.23325889360717955,0.0,0.23198011586387837,0.16521468765591166,0.04727318939405613,1217.028341314184,24439.462604949193
8.471177944862156,968.5680432686993,967.213344138689,0.2346498624487656,0.0,0.23238234545506653,0.16480389150092162,0.04727847562903014,1216.7201367213245,24482.66215279084
8.521303258145362,969.3779626059614,968.0073682967167,0.23606876631003784,0.0,0.23279261147060556,0.16438495528582603,0.047284117461407545,1216.4058018915844,24525.749103548842
8.571428571428571,970.1992475815705,968.8124427824756,0.2375161208025574,0.0,0.2332110617882537,0.16395772926904092,0.047290122428086424,1216.0852237222814,24568.724918423548
8.62155388471178,971.032126640428,969.6287894507234,0.23899244899033187,0.0,0.2336378464862494,0.1635220614599373,0.0472964980655288,1215.7582874574307,24611.591058341477
8.671679197994987,971.876832924318,970.4566346806333,0.24049828136881163,0.0,0.2340731178432277,0.16307779761736646,0.04730325189979893,1215.4248766909466,24654.348984276538
8.721804511278195,972.7336043685098,971.2962094741303,0.2420341558356187,0.0,0.23451703033599608,0.1626247812502654,0.04731039143603508,1215.0848733715845,24697.000157572405
8.771929824561402,973.6026837976488,972.1477495527844,0.2436006176525503,0.0,0.23496974063503653,0.16216285362047209,0.04731792414733943,1214.7381578097109,24739.546040265854
8.822055137844611,974.484319021132,973.0114954535574,0.24519821939835781,0.0,0.23543140759758707,0.16169185374789485,0.04732585746307143,1214.384608686014,24781.9880954112
8.87218045112782,975.3787629281298,973.8876926236563,0.24682752091177726,0.0,0.23590219225814896,0.16121161841818785,0.04733419875653064,1214.024103062264,24824.327787405622
8.922305764411027,976.2862735823774,974.7765915146966,0.24848908922427257,0.0,0.23638225781625608,0.1607219821930913,0.04734295533201581,1213.6565163942323,24866.566582315467
8.972431077694235,977.2071143168289,975.6784476763467,0.25018349848191496,0.0,0.2368717696213344,0.1602227774236075,0.047352134411248026,1213.2817225469,24908.705948203566
9.022556390977442,978.1415538282256,976.5935218495828,0.2519113298557789,0.0,0.23737089515446178,0.15971383426619734,0.04736174311914621,1212.8995938120802,24950.747355457388
9.072681704260651,979.0898662715949,977.5220800596567,0.25367317144017143,0.0,0.23787980400681782,0.1591949807022056,0.04737178846894473,1212.5100009286014,24992.692277118236
9.12280701754386,980.052331354638,978.4643937088446,0.2554696181379122,0.0,0.23839866785458214,0.1586660425607517,0.04738227734664362,1212.1128131052171,25034.54218921133
9.172932330827066,981.029234431895,979.4207396690134,0.2573012715317388,0.0,0.23892766042999136,0.15812684354537215,0.04739321649478303,1211.7078980464423,25076.298571076873
9.223057644110275,982.0208665984742,980.3914003740034,0.25916873974068183,0.0,0.23946695748819463,0.15757720526477187,0.04740461249553496,1211.2951219815545,25117.962905702057
9.273182957393484,983.0275247829653,981.3766639117789,0.2610726372598941,0.0,0.24001673676943072,0.15701694726815454,0.04741647175310635,1210.8743496970949,25159.536680053934
9.32330827067669,984.0495118389067,982.3768241162412,0.2630135847818436,0.0,0.2405771779558717,0.15644588708578547,0.047428800475449284,1210.4454445733077,25201.02138541316
9.3734335839599,985.0871366337697,983.3921806585058,0.26499220899584,0.0,0.24114846262218287,0.15586384027572983,0.04744160465527539,1210.0082686251737,25242.418517708462
9.423558897243108,986.1407141337534,984.4230391373234,0.26700914236133566,0.0,0.24173077417837116,0.15527062047819126,0.04745489005037347,1209.5626825490217,25283.729577851627
9.473684210526315,987.2105654815867,985.4697111681264,0.2690650228479109,0.0,0.24232429780270556,0.15466603947966,0.04746866216323138,1209.1085457762388,25324.956072072684
9.523809523809524,988.2970180627034,986.5325144698905,0.2711604936306362,0.0,0.24292922036117978,0.15404990729039697,0.04748292621996543,1208.6457165365296,25366.099512254674
9.57393483709273,989.4004055520799,987.611772948534,0.2732962027224296,0.0,0.2435457303077852,0.1534220322409784,0.047497687148564,1208.1740519346877,25407.161416267118
9.62406015037594,990.5210679288211,988.707816774871,0.2754728025130496,0.0,0.2441740175561356,0.15278222110735504,0.047512949556456366,1207.6934080474416,25448.14330829646
9.674185463659148,991.6593514366875,989.8209824540028,0.27769094916393317,0.0,0.24481427330663,0.15213027928023315,0.04752871770742381,1207.2036400513537,25489.046719170976
9.724310776942355,992.8156084534759,990.9516128812968,0.2799513017729691,0.0,0.2454666898024179,0.15146601100550794,0.047544995497880174,1206.704602400344,25529.873186675468
9.774436090225564,993.9901972056495,992.100057377374,0.28225452116244576,0.0,0.24613145996850386,0.15078921974140713,0.047561786432565215,1206.1961490845708,25570.624255848277
9.82456140350877,995.1834812182931,993.266671690321,0.28460126803712044,0.0,0.24680877685527514,0.15009970871105693,0.04757909359972093,1205.6781340253842,25611.301479247606
9.87468671679198,996.3958283088507,994.4518179468707,0.286992200072281,0.0,0.24749883274955128,0.14939728178736958,0.04759691964586877,1205.1504117015243,25651.90641716499
9.924812030075188,997.627608788198,995.6558645244621,0.28942796715972263,0.0,0.2482018177130188,0.14868174495038955,0.04761526675038922,1204.6128381735173,25692.44063774759
9.974937343358395,998.879192273324,996.8791858013581,0.2919092034461235,0.0,0.24891791712334077,0.1479529087418143,0.047634136600255395,1204.0652728015586,25732.90571696252
10.025062656641603,1000.1509420485378,998.122161720185,0.29443651372953633,0.0,0.249647307460815,0.1472105924738295,0.047653530365545496,1203.507581183279,25773.303238286237
10.075187969924812,1001.4432050640551,999.3851770680384,0.29701044984208613,0.0,0.25039014898077083,0.14645463155209384,0.04767344867685746,1202.9396402567968,25813.634791911543
10.125313283208019,1002.7562941133933,1000.6686203264401,0.29963146911524313,0.0,0.2511465728133394,0.1456848903712844,0.04769389160667018,1202.3613472781842,25853.901973102867
10.175438596491228,1004.090455899908,1001.9728818556948,0.30229986056946695,0.0,0.2519166580244361,0.14490128524943874,0.04771485865839454,1201.772635778223,25894.106379036595
10.225563909774436,1005.4458135272662,1003.2983509720958,0.3050156126856237,0.0,0.25270039050593884,0.14410382553323986,0.047736348769993324,1201.1735041516415,25934.249602929645
10.275689223057643,1006.8222625753526,1004.6454108611891,0.30777817530581836,0.0,0.2534975889338429,0.143292687635705,0.047758360344804116,1200.564067140137,25974.3332232901
10.325814536340852,1008.2192833050498,1006.0144320371193,0.3105860306262065,0.0,0.2543077713404974,0.1424683484606901,0.04778089133258122,1199.9446485981316,26014.35878437846
10.375939849624059,1009.6355439987734,1007.4060755841675,0.31343592747341126,0.0,0.2551299168421197,0.14163182365557128,0.04780393944685634,1199.315947055767,26054.32775983318
10.426065162907268,1011.0681981056293,1008.8205505996585,0.31632153866543994,0.0,0.25596204788964716,0.14078508534521725,0.04782750254251491,1198.679326038121,26094.241480948654
10.476190476190476,1012.5120544119771,1010.2574010425124,0.319231208787642,0.0,0.2568005300443843,0.1399317624540442,0.047851579034075366,1198.0373011707204,26134.101019767368
10.526315789473683,1013.9581114036749,1011.7151473998529,0.3221445681932684,0.0,0.2576390187774124,0.13907819401067814,0.04787616882502451,1197.3942724581352,26173.907003356522
10.576441102756892,1015.3917349207651,1013.1894631318659,0.3250284860140281,0.0,0.25846720076562113,0.13823468812497194,0.047901274605747064,1196.7573996411782,26213.659325322573
10.626566416040099,1016.7915549260812,1014.6695014780355,0.32783484794025436,0.0,0.259270103431024,0.1374162131465439,0.047926903043186184,1196.1370833332578,26253.356762450156
10.676691729323307,1018.1312132200128,1016.133444073861,0.33050523446247,0.0,0.260029552242356,0.13664094175583316,0.047953064809181385,1195.5459546016568,26292.99660511936
10.726817042606516,1019.3855000427311,1017.548324578595,0.33298582866433946,3.920714834634423e-06,0.260728821452267,0.13592557884072184,0.047979774337385296,1194.9955791005802,26332.574536127766
10.776942355889723,1020.5384822271044,1018.8791489000716,0.3352456819203832,2.7354300486394796e-05,0.2613583391740909,0.13527961171116526,0.048007049963250906,1194.4923624608077,26372.084976324077
10.827067669172932,1021.5869361859823,1020.1027094464018,0.3372842663670445,7.087977921438069e-05,0.2619179679400205,0.13470318745571527,0.048034899083927544,1194.0364192647055,26411.521812457966
10.87719298245614,1022.5382592300596,1021.2123319595464,0.33912418921419957,0.00013298181736606817,0.26241476780590517,0.1341892708996562,0.04806332437023247,1193.6229032514298,26450.87914629166
10.927318295739347,1023.4056446712686,1022.2146438676172,0.34079827862420753,0.00021211215651750548,0.26285897993807755,0.13372764637174459,0.04809232624836604,1193.2447589592832,26490.151798182622
10.977443609022556,1024.2038953587355,1023.123373258475,0.34233988892623474,0.00030686300661694266,0.263261007407504,0.13330793420210996,0.04812190463705331,1192.8948134092975,26529.335515210336
11.027568922305765,1024.9470081712707,1023.9544070708716,0.34377832183254237,0.0004160463031808897,0.26362998867276277,0.1329210159655566,0.04815206010813305,1192.5667640348634,26568.426974554604
11.077694235588972,1025.6471632375467,1024.723013818266,0.34513764124756463,0.0005387108540897209,0.2639734279555858,0.13255940381267714,0.04818279444610308,1192.255434479645,26607.423686019643
11.12781954887218,1026.3144991227596,1025.4426462028898,0.34643702436631973,0.0006741279730715722,0.2642973043788788,0.1322171315491277,0.04821411080150578,1191.9566990615199,26646.323861457535
11.177944862155387,1026.9572439686422,1026.1246173604643,0.34769158783437426,0.0008217647102481023,0.2646063293651599,0.13188949766144467,0.04824601362317711,1191.667304857983,26685.12628504248
11.228070175438596,1027.581973331385,1026.7781859193599,0.3489132346004827,0.000981254499983043,0.2649042106823838,0.13157280174243038,0.04827850849152132,1191.3846893928237,26723.83019810946
11.278195488721805,1028.1938887980352,1027.4108004216323,0.3501113729671697,0.001152369607409346,0.26519387678377143,0.13126412059634615,0.04831160192175846,1191.1068259113276,26762.435202282075
11.328320802005011,1028.7970743830422,1028.0283832338857,0.35129348451422526,0.001334996986187952,0.2654776541023024,0.130961131335402,0.048345301172086665,1190.832101241641,26800.941180297716
11.37844611528822,1029.3947168753184,1028.635601649887,0.3524655595392345,0.0015291178682209406,0.26575740306246237,0.13066197569871033,0.04837961407233567,1190.5592222009284,26839.34823236667
11.428571428571427,1029.9892888345003,1029.2361066313913,0.3536324276200892,0.0017347908559730678,0.2660346213849263,0.13036515702122156,0.04841454887837254,1190.2871445829473,26877.656625550186
11.478696741854636,1030.582697758602,1029.8327346371882,0.35479800860398913,0.001952138090646118,0.2663105225573353,0.13006946198622513,0.048450114152344535,1190.015019266888,26915.86675378623
11.528822055137844,1031.1764063636283,1030.4276743849314,0.3559655042324461,0.0021813340315420017,0.26658609576541364,0.1297739008747119,0.048486318666462844,1189.7421510902677,26953.97910650276
11.578947368421051,1031.7715289131024,1031.0226027401782,0.3571375456512156,0.0024225964111839375,0.2668621520377625,0.12947766156542873,0.0485231713271245,1189.4679672006278,26991.99424409877
11.62907268170426,1032.3689080039599,1031.618794445714,0.3583163080249167,0.002676178984141134,0.26713936010453343,0.12918007379175536,0.04856068111601382,1189.1919924705842,27029.912778887116
11.679197994987469,1032.9691755500105,1032.217210155894,0.35950360044080837,0.0029423657447282077,0.26741827452530204,0.12888058110549983,0.04859885704502716,1188.913830215567,27067.735360362098
11.729323308270676,1033.5728010557375,1032.818566704701,0.3607009370647318,0.0032214663426437112,0.2676993579493319,0.12857871868893955,0.04863770812222287,1188.6331469324255,27105.462663879654
11.779448621553884,1034.180129703088,1033.4233929412874,0.36190959391461675,0.00351381247277965,0.2679829988732689,0.12827409565380868,0.04867724332640109,1188.3496601212282,27143.095382020896
11.829573934837093,1034.7914122938157,1034.0320739055935,0.3631306544734928,0.0038197550554589076,0.26826952590446235,0.1279663808220961,0.048717471588311315,1188.0631284987173,27180.63421805797
11.8796992481203,1035.406828694553,1034.6448856231261,0.3643650465450581,0.004139662056736784,0.2685592192823465,0.1276552912387194,0.04875840177684592,1187.7733440879956,27218.079881060436
11.929824561403509,1036.0265061099915,1035.2620223789995,0.3656135721657896,0.004473916825974772,0.26885232022616856,0.1273405828498201,0.04880004268889253,1187.4801257956349,27255.433082275948
11.979949874686715,1036.6505332491313,1035.8836179824586,0.3668769319606861,0.0048229168505554065,0.2691490385437846,0.12702204291360022,0.04884240304178804,1187.1833141790555,27292.694532495418
12.030075187969924,1037.2789712393621,1036.5097622456185,0.368155745017317,0.005187072846185032,0.2694495588384185,0.12669948380813792,0.04888549146754314,1186.8827671740532,27329.864940174175
12.080200501253133,1037.9118619736703,1037.1405136648148,0.36945056512149493,0.005566808116444248,0.26975404557777094,0.1263727379728634,0.048929316508192704,1186.5783566019556,27366.94501012941
12.13032581453634,1038.5492344396416,1037.7759091009202,0.3707618940242493,0.005962558127700065,0.27006264723541423,0.12604165377462104,0.04897388661177973,1186.2699653130715,27403.935442673013
12.180451127819548,1039.1911094687835,1038.4159710987144,0.3720901922775529,0.006374770255685922,0.2703754996729203,0.1257060921305586,0.04901921012860325,1185.957484851419,27440.836933070175
12.230576441102755,1039.8375032558924,1039.060713358389,0.3734358880740587,0.006803903668395652,0.27069272889909,0.1253659237520269,0.04906529530745801,1185.6408135475644,27477.65017123838
12.280701754385964,1040.4884299266337,1039.710144769252,0.3747993844459392,0.007250429316758534,0.2710144533174849,0.1250210268987234,0.04911215029167134,1185.3198549635595,27514.37584162123
12.330827067669173,1041.1439033738668,1040.3642723322337,0.3761810651141718,0.007714830010134704,0.27134078555344904,0.12467128555224073,0.04915978311480163,1184.99451662759,27551.014623186722
12.38095238095238,1041.8039385369045,1041.0231032303063,0.37758129922828165,0.008197600558218195,0.27167183393569516,0.12431658793421557,0.04920820169590983,1184.6647090069214,27587.567189511785
12.431077694235588,1042.4685522606696,1041.686646251507,0.3790004451947808,0.008699247964637509,0.2720077036944228,0.1239568253073242,0.04925741383434936,1184.3303446766627,27624.034208924353
12.481203007518797,1043.1377638418899,1042.3549127254096,0.3804388537582568,0.009220291660551737,0.2723484979271828,0.12359189100807537,0.049307427204046295,1183.9913376491966,27660.416344681627
12.531328320802004,1043.8115953456643,1043.0279170987653,0.3818968704707377,0.00976126376897697,0.27269431837482394,0.1232216796691922,0.04935824934726043,1183.6476028351856,27696.714255168943
12.581453634085213,1044.4900717567518,1043.7056772479025,0.3833748376614458,0.010322709392542482,0.27304526604249035,0.12284608659671091,0.04940988766783119,1183.2990556120928,27732.92859410797
12.631578947368421,1045.1732210148987,1044.3882146031012,0.3848730959994739,0.010905186918954512,0.27340144169451164,0.12246500727302831,0.04946234942392179,1182.945611480356,27769.060010766432
12.681704260651628,1045.8610739716373,1045.075554142404,0.386391985725599,0.011509268339706714,0.27376294624692166,0.1220783369622175,0.04951564172028097,1182.5871857908326,27805.109150164015
12.731829573934837,1046.553664296669,1045.7677242983223,0.3879318476158297,0.012135539578576356,0.27412988107708347,0.12168597039817206,0.04956977150004557,1182.2236935300714,27841.07665327105
12.781954887218044,1047.2510283546485,1046.4647568099153,0.38949302372794137,0.012784600827233284,0.27450234826635855,0.12128780153967196,0.049624745536109,1181.8550491523843,27876.96315719793
12.832080200501252,1047.9532050675468,1047.16668654416,0.3910758579728134,0.013457066885904227,0.2748804507888076,0.1208837233794021,0.04968057042208174,1181.4811664497224,27912.769295374288
12.882205513784461,1048.6602357734246,1047.8735513039103,0.3926806965445459,0.01415356750750885,0.27526429265646885,0.12047362779639206,0.04973725256286962,1181.1019584520427,27948.495697717663
12.932330827067668,1049.372164089127,1048.5853916346562,0.39430788823685053,0.014874747744061487,0.27565397902973743,0.12005740544336208,0.04979479816489542,1180.717337352246,27984.142990791814
12.982456140350877,1050.089035781915,1049.302250638447,0.3959577846678512,0.015621268294351624,0.2760496162996987,0.11963494566212719,0.049853213225988464,1180.3272144509133,28019.71179795533
13.032581453634084,1050.8108986531865,1050.0241738004277,0.39763074043102864,0.016393805852138052,0.27645131214789975,0.11920613642157872,0.04991250352496616,1179.9315001170235,28055.202739501157
13.082706766917292,1051.5378024360748,1050.7512088313192,0.3993271131864581,0.017193053454272317,0.27685917558792666,0.11877086427387536,0.04997267461092951,1179.5301037615986,28090.61643278809
13.132832080200501,1052.2697987077322,1051.4834055275812,0.40104726370353133,0.018019720828202287,0.27727331699223684,0.11832901432539555,0.05003373179229432,1179.1229338218636,28125.953492364908
13.182957393483708,1053.0069408164143,1052.2208156499,0.402791555863978,0.018874534738376053,0.2776938481069543,0.11788047021974185,0.050095680125579,1178.7098977540252,28161.21453008831
13.233082706766917,1053.7492838230107,1052.9634928198716,0.404560356632068,0.019758239331090145,0.27812088205673546,0.11742511413068718,0.05015852440396867,1178.2909020331772,28196.40015523538
13.283208020050125,1054.4968844563828,1053.7114924342309,0.4063540359973242,0.020671596477327133,0.2785545333413354,0.11696282676343567,0.050222269145675166,1177.8658521591976,28231.510974611512
13.333333333333332,1055.2498010816741,1054.464871595671,0.40817296689383625,0.02161538611311154,0.278994917825111,0.11649348736295573,0.05028691858211167,1177.4346526677487,28266.54759265454
13.38345864661654,1056.0080936806846,1055.2236890591012,0.4100175250992714,0.022590406576881564,0.2794421527203974,0.11601697372845168,0.05035247664590069,1176.9972071457216,28301.510611535847
13.43358395989975,1056.771823843371,1055.988005192135,0.4118880891158956,0.023597474943332288,0.2798963565654457,0.11553316223328429,0.05041894695873359,1176.553418250631,28336.400631259046
13.483709273182956,1057.5410547695483,1056.7578819485725,0.41378504003529964,0.024637427353136992,0.2803576491974199,0.11504192784984275,0.05048633281910035,1176.1031877336009,28371.21824975693
13.533834586466165,1058.315851279921,1057.533382853701,0.41570876138804,0.025711119337895227,0.2808261517207983,0.11454314417902212,0.050554637189907575,1175.6464164656945,28405.964062987143
13.583959899749372,1059.096279835633,1058.3145730002886,0.4176596389790241,0.026819426139594153,0.28130198647141036,0.11403668348407875,0.050623862686003794,1175.1830044674093,28440.638665027083
13.63408521303258,1059.8824085655885,1059.1015190542569,0.4196380607091812,0.027963243023804336,0.28178527697624417,0.11352241672872738,0.05069401156163058,1174.7128509412435,28475.24264816851
13.68421052631579,1060.674307300888,1059.894289269095,0.42164441638373135,0.029143485585758938,0.2822761479090947,0.1130002136194145,0.05076508569781882,1174.2358543072728,28509.77660301221
13.734335839598996,1061.4720476157759,1060.6929535081874,0.42367909750719596,0.0303610900483939,0.282774725042064,0.11246994265175686,0.050837086589749725,1173.751912241726,28544.241118563063
13.784461152882205,1062.2757028745873,1061.4975832743216,0.4257424970651641,0.031617013551349264,0.2832811351928889,0.11193147116117559,0.05091001533410046,1173.260921718567,28578.636782325848
13.834586466165412,1063.08534828423,1062.3082517457353,0.42783500929273044,0.03291223442985298,0.283795506168037,0.11138466537778695,0.050983872616394935,1172.7627790541278,28612.964180402076
13.88471177944862,1063.9010609518045,1063.125033818136,0.4299570294294546,0.034247752482328614,0.28431796670149206,0.11082939048563417,0.05105865869838069,1172.257379954835,28647.223897588065
13.93483709273183,1064.722919947012,1063.948006152214,0.4321089534606349,0.03562458922548243,0.284848646389131,0.11026551068636205,0.05113437340545321,1171.744619568108,28681.416517474532
13.984962406015036,1065.5510063690529,1064.7772472262297,0.4342911778446625,0.03704378813554147,0.2853876756185869,0.10969288926744762,0.05121101611414949,1171.2243925364899,28715.542622547877
14.035087719298245,1066.3854034177436,1065.6128373933118,0.43650409922619154,0.03850641487422407,0.2859351854944794,0.10911138867510893,0.05128858573973351,1170.696593055102,28749.602794293387
14.085213032581454,1067.226196468619,1066.4548589431558,0.43874811413485443,0.04001355749793297,0.28649130775889325,0.10852087059201976,0.051367080723895904,1170.161114932505,28783.597613300513
14.13533834586466,1068.073473151819,1067.3033961678575,0.44102361866924217,0.041566326648568984,0.2870561747069825,0.10792119601996017,0.0514464990225915,1169.6178516550508,28817.527659370364
14.185463659147869,1068.9273234345578,1068.158535431642,0.44333100816587223,0.04316585572426504,0.28762991909757546,0.10731222536753503,0.051526838094037984,1169.0666964548263,28851.393511625607
14.235588972431078,1069.7878397070135,1069.0203652442808,0.4456706768528711,0.04481330102824188,0.2882126740586575,0.10669381854309215,0.05160809488689969,1168.5075423812657,28885.1957486229
14.285714285714285,1070.655116871462,1069.888976338018,0.4480430174881089,0.04650984189388579,0.28880457298761253,0.10606583505296927,0.051690265828680776,1167.9402823765372,28918.934948467962
14.335839598997493,1071.529252434503,1070.764461747824,0.4504484209815374,0.04825668078405303,0.2894057494461047,0.10542813410519733,0.05177334681435166,1167.3648093547806,28952.611688933404
14.3859649122807,1072.4103466022168,1071.646916894835,0.45288727600149126,0.05005504336249843,0.29001633704948776,0.10478057471878449,0.051857333195233266,1166.781016285296,28986.22654757944
14.436090225563909,1073.2985023780836,1072.5364396728005,0.45535996856475236,0.05190617853512924,0.29063646935063403,0.10412301583869896,0.05194221976816529,1166.1887962797618,29019.780101877608
14.486215538847118,1074.193825663498,1073.433130537407,0.45786688161017597,0.05381135845882616,0.2912662797180833,0.10345531645666384,0.05202800076498143,1165.5880426835704,29053.27292933749
14.536340852130325,1075.0964253607099,1074.3370925983186,0.46040839455571114,0.055771878515375156,0.2919059012084162,0.10277733573787162,0.052114669842316136,1164.9786491713608,29086.705607636606
14.586466165413533,1076.006413477989,1075.2484317137742,0.46298488283867195,0.057789057247933796,0.29255546643276453,0.10208893315371892,0.05220222007176749,1164.3605098468263,29120.078714753523
14.63659147869674,1076.9239052368189,1076.1672565875756,0.46559671743914616,0.05986423625734608,0.2932151074173812,0.1013899686206548,0.052290643930440105,1163.7335193468732,29153.392829104214
14.686716791979949,1077.849019180883,1077.093678868283,0.46824426438645783,0.06199878005550124,0.29388495545820026,0.10068030264522661,0.052379933291891716,1163.097572950195,29186.648529681752
14.736842105263158,1078.7818772866078,1078.0278132504275,0.4709278842486297,0.06419407587280497,0.2945651409693262,0.09995979647539942,0.05247007941750654,1162.4525666903369,29219.846396199333
14.786967418546364,1079.7226050749946,1078.969777577523,0.4736479316048329,0.06645153341671213,0.2952557933254066,0.09922831225821417,0.052561072948318056,1161.7983974732965,29252.987009236716
14.837092731829573,1080.6713317244382,1079.9196929466477,0.4764047545008397,0.06877258457814152,0.2959570406978494,0.09848571320384002,0.0526529038973029,1161.1349631997327,29286.070950390003
14.887218045112782,1081.6281901842212,1080.8776838143378,0.4791986938875394,0.07115868308246863,0.2966690098848589,0.09773186375606445,0.052745561642166934,1160.4621628918123,29319.09880242488
14.937343358395989,1082.593317288327,1081.843878103512,0.4820300830426154,0.07361130408166848,0.29739182613528053,0.09696662976925337,0.052839034918643606,1159.7798968247548,29352.071149433137
14.987468671679197,1083.566853869193,1082.8184073111177,0.4848992469755262,0.07613194368405415,0.29812561296625406,0.09618987869179997,0.05293331181432364,1159.0880666631,29384.98857699264
15.037593984962406,1084.5489448709795,1083.8014066161638,0.4878065018159721,0.07872211841793277,0.29887049197469157,0.09540147975606894,0.05302837976303373,1158.3865756017274,29417.85167233049
15.087719298245613,1085.5397394619122,1084.7930149877627,0.49075215418608303,0.081383364625382,0.29962658264261144,0.09460130417482697,0.05312422553978121,1157.675328511657,29450.661024489462
15.137844611528822,1086.5393911451974,1085.793375292783,0.4937365005566039,0.08411723778222875,0.30039400213637396,0.0937892253441376,0.0532208352562795,1156.9542320906348,29483.417224497614
15.187969924812029,1087.548057867983,1086.8026344026662,0.4967598265874046,0.08692531174019802,0.30117286509988106,0.09296511905268182,0.05331819435706819,1156.2231950185133,29516.12086554081
15.238095238095237,1088.565902127796,1087.8209432989313,0.49982240645269654,0.08980917788709211,0.3019632834418211,0.09212886369745055,0.053416287616239906,1155.4821281174254,29548.77254313828
15.288220551378446,1089.5930910758332,1088.848457176845,0.5029245021513818,0.09277044422075341,0.30276536611705357,0.09128034050573841,0.05351509913478403,1154.730944516732,29581.372855320802
15.338345864661653,1090.629796616452,1089.885335546695,0.5060663628030218,0.09581073433247132,0.3035792189022501,0.0904194337633516,0.05361461233855601,1153.9695598227293,29613.922402811553
15.388471177944862,1091.6761955021511,1090.9317423320622,0.50924822392996,0.0989316862954051,0.30440494416592473,0.08954603104892411,0.05371480997687868,1153.1978922930773,29646.42178920921
15.438596491228068,1092.7324694232843,1091.987845964435,0.512470306726193,0.10213495145351612,0.30524264063300494,0.08866002347422045,0.053815674121780135,1152.4158630159134,29678.871621173286
15.488721804511277,1093.7988050917115,1093.0538194734709,0.5157328173136341,0.10542219310644343,0.306092403144116,0.08776130593028215,0.05391718616787065,1151.6233960935965,29711.272508611215
15.538847117794486,1094.875394317525,1094.1298405721518,0.5190359459864751,0.10879508508569904,0.30695432240976794,0.08684977733925926,0.05401932683285861,1150.8204188310137,29743.62506486709
15.588972431077693,1095.9624340779578,1095.2160917360409,0.522379866444405,0.11225531021753211,0.3078284847596577,0.08592534091174667,0.05412207615870371,1150.0068619283873,29775.92990691154
15.639097744360901,1097.060126577511,1096.3127602757852,0.5257647350154977,0.11580455866779048,0.308714971887316,0.08498790440942705,0.05422541351340282,1149.182659678484,29808.187655532587
15.68922305764411,1098.1686792983012,1097.4200384019653,0.529190689869641,0.11944452616411359,0.3096138605903494,0.08403738041280293,0.054329317593401726,1148.3477501681384,29840.398935526846
15.739348370927317,1099.2883050395722,1098.5381232813386,0.532657850223431,0.12317691209082192,0.31052522250655007,0.08307368659377981,0.054433766426623585,1147.5020754839766,29872.56437589085
15.789473684210526,1100.4192219452661,1099.6672170834725,0.536166315537489,0.1270034174519166,0.31144912384615664,0.08209674599284893,0.05453873737610177,1146.6455819222294,29904.684610011867
15.839598997493734,1101.5616535184881,1100.8075270166992,0.5397161647072711,0.13092574269767027,0.31238562512058876,0.08110648730058284,0.0546442071442043,1145.7782202024841,29936.760275857778
15.889724310776941,1102.7158286216618,1101.9592653522734,0.5433074552484715,0.13494558541045926,0.31333478086799094,0.08010284514314131,0.05475015177743341,1144.8999456852364,29968.792016165404
15.93984962406015,1103.8819808500464,1103.1226480244434,0.5469402185033448,0.13906464442245953,0.3142966382178732,0.07908576152347045,0.05485654670158077,1144.0107193573015,30000.780550215797
15.989974937343357,1105.0602258812546,1104.2975855690272,0.5506134727591121,0.14328623042256378,0.3152709489997156,0.07805547230714463,0.054963374285716265,1143.1106979690865,30032.74426433672
16.040100250626566,1106.2507936417553,1105.4841558366772,0.5543262719290136,0.14761348163569207,0.3162574743519917,0.07701220443032991,0.05507061644953254,1142.2000332667712,30064.699890693715
16.090225563909772,1107.4540624692609,1106.682766380911,0.5580785369796026,0.15204804218001572,0.31725622772286505,0.07595593387956347,0.05517824802307977,1141.2787111481764,30096.64799646722
16.140350877192983,1108.6703973109989,1107.8938033777893,0.5618701666725335,0.1565915458147673,0.31826721601870006,0.07488664312363334,0.055286243272564324,1140.3467224153856,30128.589124225033
16.19047619047619,1109.9001526887585,1109.117635674714,0.5657010348003122,0.16124561526967876,0.3192904387747709,0.07380432196808488,0.05539457591937934,1139.4040634034932,30160.523830052716
16.240601503759397,1111.143675342502,1110.354618683919,0.5695709895693227,0.16601185805731636,0.32032588794751893,0.0727089677902293,0.05550321914387899,1138.4507361949388,30192.45268306854
16.290726817042607,1112.4013063629159,1111.6050975585226,0.5734798529783404,0.17089186227887854,0.3213735477018194,0.07160058577844411,0.05561214559006341,1137.4867488342852,30224.376265051997
16.340852130325814,1113.6733828952977,1112.8694097697855,0.5774274201958579,0.17588719239464132,0.32243339419475353,0.0704791891746007,0.055721327371017294,1136.5121155434003,30256.29517016366
16.39097744360902,1114.9602394826868,1114.1478871834863,0.5814134589391272,0.18099938493469983,0.3235053953571834,0.06934479951860596,0.05583073607496546,1135.5268569369882,30288.210004737797
16.441102756892228,1116.2622091041208,1115.4408577161425,0.5854377088574613,0.1862299441295475,0.32458951067426056,0.06819744689416962,0.05594034277182557,1134.531000238405,30320.121387132083
16.49122807017544,1117.5796239539557,1116.7486466375694,0.5894998809220638,0.19158033744348069,0.3256856909658662,0.06703717017500326,0.056050118020151696,1133.5245794956795,30352.029947621348
16.541353383458645,1118.9128159999393,1118.0715775744554,0.5935996568244176,0.19705199099686385,0.32679387816787897,0.06586401727073575,0.05616003187437382,1132.507635797638,30383.936328324085
16.591478696741852,1120.2621173509049,1119.4099732598702,0.5977366883850745,0.20264628486604783,0.3279140051150755,0.06467804537188877,0.056270053892247734,1131.480217490014,30415.841183152443
16.641604010025063,1121.6278604593113,1120.764156065524,0.6019105969745198,0.20836454825222325,0.3290459953264036,0.0634793211933048,0.05638015314243692,1130.442380391412,30447.745177777375
16.69172932330827,1123.0103781791959,1122.1344483469106,0.6061209729476604,0.21420805451281022,0.33018976279330975,0.06226792121545403,0.05649029821215496,1129.39418800897,30479.648989602083
16.741854636591476,1124.4100036962595,1123.5211726259329,0.6103673750933774,0.22017801605114293,0.33134521177176696,0.06104393192307295,0.05660045721480219,1128.3357117535422,30511.553307737617
16.791979949874687,1125.8270703436312,1124.9246516310407,0.6146493301004728,0.22627557906224172,0.33251223657860646,0.059807450040607765,0.05671059779753465,1127.2670311542126,30543.458832975244
16.842105263157894,1127.2619113142557,1126.3452082111542,0.6189663320412793,0.23250181813443643,0.3336907213927402,0.058558582763947105,0.056820687148707645,1126.1882340719228,30575.366277750836
16.8922305764411,1128.7148592787107,1127.7831651365404,0.6233178418741203,0.23885773070850588,0.33488054006183937,0.05729744798793412,0.0569306920051399,1125.0994169119804,30607.276366097074
16.94235588972431,1130.186245915507,1129.238844797258,0.6277032869657518,0.24534423139784617,0.33608155591501987,0.0560241745291534,0.05704057865914686,1124.0006848351884,30639.189833579443
16.992481203007518,1131.6764013594966,1130.7125688077138,0.632122060634859,0.2519621461750247,0.3372936215820847,0.054738902343483886,0.05715031296529532,1122.8921519673213,30671.107427212562
17.042606516290725,1133.1856535728625,1132.2046575241588,0.6365735217176465,0.2587122064318926,0.33851657881986386,0.053441782737903336,0.05725986034683404,1121.7739416066468,30703.029905353567
17.092731829573935,1134.7143276422303,1133.7154294805678,0.6410569941565039,0.26559504292221564,0.3397502583461985,0.052132978576024155,0.0573691858017574,1120.6461864291712,30734.958037569297
17.142857142857142,1136.262745004677,1135.2452007472243,0.6455717666127015,0.27261117959759357,0.3409944796821167,0.050812664476826364,0.057478253908462215,1119.5090286912657,30766.892604474517
17.19298245614035,1137.831222604849,1136.794284215435,0.6501170921040265,0.2797610273491612,0.3422490510027565,0.04948102700604485,0.057587028830960015,1118.3626204293098,30798.834397538285
17.24310776942356,1139.420071984886,1138.3629888110615,0.6546921876682259,0.2870448776692721,0.34351376899759584,0.04813826485965551,0.05769547432360954,1117.2071236559675,30830.784218855777
17.293233082706767,1141.029598308552,1139.9516186390244,0.6592962340532518,0.2944628962496373,0.3447884187406123,0.046784589038836026,0.05780355373533835,1116.0427105526537,30862.74288088291
17.343358395989974,1142.6600993206437,1141.5604720604592,0.6639283754350374,0.30201511653328894,0.3460727735709341,0.04542022301583841,0.05791123001332275,1114.8695636577838,30894.71120613137
17.39348370927318,1144.3118642425484,1143.1898407038725,0.6685877191636391,0.309701433239726,0.3473665949845997,0.04404540289014863,0.05801846570609819,1113.6878760503557,30926.690026821394
17.44360902255639,1145.9851726046877,1144.8400084113923,0.6732733355385783,0.31752159588423345,0.34866963253807043,0.04266037753428031,0.058125222966076855,1112.4978515283763,30958.680184489975
17.493734335839598,1147.6802930164547,1146.5112501210087,0.6779842576141847,0.3254752023137719,0.3499816237641527,0.0412654087285345,0.05823146355144944,1111.2997047816468,30990.682529552127
17.543859649122805,1149.397481874193,1148.2038306855877,0.6827194810357395,0.3335616922832197,0.35130229410101466,0.03986077128402982,0.05833714882745288,1110.0936615583862,31022.697920812752
17.593984962406015,1151.1369820077018,1149.918003629315,0.6874779639072093,0.34178034109696154,0.35263135683500124,0.03844675315328673,0.05844223976698689,1108.8799588251682,31054.727224926875
17.644110275689222,1152.8990212657225,1151.6540098421926,0.6922586266913601,0.3501302533419104,0.35396851305798066,0.03702365552762302,0.05854669695056577,1107.658844919627,31086.771315805985
17.69423558897243,1154.683811040832,1153.4120762131552,0.6970603521430548,0.3586103567389543,0.35531345163997874,0.03559179292059425,0.05865048056559481,1106.4305796953822,31118.831073968086
17.74436090225564,1156.4915447341536,1155.1924142023515,0.7018819852765251,0.36721939614049953,0.35666584921787914,0.034151493236694634,0.05875355040496257,1105.1954346586117,31150.907385829407
17.794486215538846,1158.322396160265,1156.9952183531157,0.7067223333674298,0.37595592770227937,0.3580253702009933,0.0327030978245118,0.058855865864944006,1103.9536930957108,31183.001142935398
17.844611528822053,1160.1765178926737,1158.8206647441384,0.7115801659905218,0.38481831325783306,0.35939166679432055,0.03124696151351329,0.05895738594241198,1102.7056501914667,31215.113241129
17.894736842105264,1162.0540395501973,1160.6689093823304,0.7164542150937487,0.39380471492402896,0.36076437904033437,0.02978345263363325,0.05905806923135746,1101.4516131371704,31247.244579653816
17.94486215538847,1163.9550660245482,1162.5400865368379,0.7213431751096346,0.4029130899657251,0.36214313488014294,0.028312953016818652,0.05915787391872209,1100.1919012281107,31279.396060190265
17.994987468671678,1165.8796756494123,1164.434307014648,0.7262457031048026,0.41214118594709903,0.3635275502348745,0.026835857979693314,0.059256757779550175,1098.9268459498837,31311.568585822446
18.045112781954884,1167.8279183112513,1166.3516563781793,0.7311604189685057,0.4214865361963031,0.3649172291081338,0.025352576286507538,0.05935467817146993,1097.656791052974,31343.763059933633
18.095238095238095,1169.7998135020598,1168.2921931051972,0.7360859056410559,0.4309464556089882,0.36631176371036167,0.023863530091552513,0.0594515920285187,1096.3820926150722,31375.980385028382
18.145363408521302,1171.7953483142794,1170.2559466913601,0.741020709383044,0.4405180368148119,0.3677107346059044,0.02236915486024582,0.05954745585433009,1095.1031190906097,31408.221461479083
18.19548872180451,1173.814475378098,1172.2429156956484,0.7459633400862612,0.45019814672938724,0.36911371088355843,0.02086989926812741,0.059642225714706114,1093.820251347011,31440.48718619495
18.24561403508772,1175.857110741409,1174.253065728878,0.7509122716272282,0.45998342351219484,0.37052025035129643,0.019366225077057823,0.05973585722960279,1092.5338826871782,31472.778451211383
18.295739348370926,1177.9231316928272,1176.286327385455,0.755865942264246,0.4698702739488649,0.37192989975578833,0.017858606987981435,0.0598283055645641,1091.2444188577342,31505.096142197697
18.345864661654133,1180.0123745285068,1178.342594118164,0.7608227550788813,0.4798548712739264,0.3733421950270759,0.016347532469792297,0.05991952542165238,1089.9522780425214,31537.44113688115
18.395989974937343,1182.1246322651302,1180.4217200528092,0.765781078462753,0.4899331534476265,0.37475666154735215,0.014833501564742372,0.060009471029978036,1088.6578908404604,31569.81430338542
18.44611528822055,1184.2596523131717,1182.5235177143388,0.7707392466502931,0.5001008218976752,0.3761728144319452,0.013317026677639579,0.06009809613633742,1087.36170022355,31602.216498481626
18.496240601503757,1186.4171342209934,1184.6477554203127,0.7756955602965475,0.5103533407322145,0.3775901587196235,0.011798632413014815,0.060185353999846515,1086.06416144245,31634.64856575136
18.546365914786968,1188.5967284289688,1186.7941522182978,0.7806482870855218,0.5206859364098216,0.37900818858250546,0.010278856016306619,0.06027119742372061,1084.7657416014317,31667.111333670415
18.596491228070175,1190.7980442685962,1188.96235154734,0.7855956622369602,0.5310935976848377,0.38042637770995935,0.008758253320426356,0.06035557911661619,1083.4669164502293,31699.605613702694
18.64661654135338,1193.0207410155008,1191.1517035692677,0.7905358877363611,0.5415710740962825,0.3818440902930136,0.007237454259130901,0.060438455019395085,1082.1681423147056,31732.132199206822
18.696741854636592,1195.2653744982724,1193.35929519836,0.7954671167510743,0.5521128503576376,0.3832597665913867,0.005717671395080887,0.06051981469874559,1080.8696019287336,31764.691891972503
18.7468671679198,1197.5397206776015,1195.5609758411042,0.8003835531317554,0.5627049226172885,0.38466250841291266,0.0042064353553855635,0.06059989301754507,1079.5699028199358,31797.31085806975
18.796992481203006,1199.9209193775184,1197.591633688039,0.8052773280149115,0.5733291607317069,0.3859798705647239,0.002749779685153217,0.060681215194906865,1078.2487456471147,31830.022826516873
18.847117794486216,1202.7923870283787,1199.0307633760096,0.8101400991929317,0.5839731025988475,0.3869655348348255,0.0015016426853259287,0.060772994537132835,1076.8303640509223,31862.835540995835
18.897243107769423,1206.908975721414,1200.0938557828672,0.8149562365760034,0.5946445482241016,0.38740433868848817,0.0005969856361894558,0.06088331504697639,1075.2508789500134,31895.776656032514
18.94736842105263,1213.1307715729981,1201.5187890481548,0.8197086329968114,0.6054128066200812,0.38717826948875367,0.0001098973129394237,0.061016624798533224,1073.4769849611612,31928.906239665088
18.997493734335837,1222.2230508919235,1204.6108512376236,0.8243824757445136,0.6164202272202338,0.38634806649760806,2.6542646077609708e-06,0.06117059386098,1071.5306202078525,31962.319938295183
19.047619047619047,1234.2168246550898,1211.1268233463147,0.8289763064929998,0.6279031017268888,0.385354255802018,1.8526121316158186e-09,0.06132841562399182,1069.5482553147826,31996.138766415635
19.097744360902254,1248.6414983984782,1221.0146706657242,0.8334996709943172,0.6401308969988211,0.38435572380208594,-2.6222331886610595e-15,0.06148381304559826,1067.571895720827,32030.479030298888
19.14786967418546,1265.0734385797148,1233.6650186171942,0.8379609077640839,0.6533339894903313,0.38335186006089716,-9.13171763111007e-19,0.061636444239018366,1065.5938876348835,32065.439006671728
19.19799498746867,1283.1771284544245,1248.5806651315581,0.8423656632716846,0.6676991177621922,0.3823387645143488,2.5282446844476505e-19,0.06178598462132802,1063.6072620730301,32101.10145028931
19.24812030075188,1302.6876583181438,1265.3691614451654,0.8467174934669022,0.6833707877290981,0.38131339249260116,3.8305628823809026e-19,0.061931971704362564,1061.6068280309978,32137.53693417849
19.298245614035086,1323.395561844948,1283.7220825153001,0.8510183925919402,0.7004490866899273,0.3802734954213509,6.355715069324839e-19,0.062073812143640966,1059.5890267442428,32174.806474925856
19.348370927318296,1345.1338724145226,1303.3974106232383,0.8552692206351518,0.7189857211967752,0.3792176017092228,5.092363744148885e-19,0.06221078770467535,1057.5518674920122,32212.963554984584
19.398496240601503,1367.767164822187,1324.2046718406061,0.8594700378994886,0.7389794732144418,0.3781450238999734,1.6645648523901257e-19,0.06234205959538517,1055.4949129502597,32252.055642900617
19.44862155388471,1391.182336501891,1345.9924556557148,0.8636203600743113,0.7603717437028453,0.3770558810094633,6.709452492688019e-19,0.06246667122700458,1053.419292436243,32292.12529342091
19.49874686716792,1415.2808884049687,1368.6379780559057,0.8677193483618318,0.7830424572600937,0.3759511297858712,5.052180326807038e-19,0.06258354960522501,1051.3277307435444,32333.21089458255
19.548872180451127,1439.972476605044,1392.0383868228384,0.8717659483262692,0.806806292973857,0.37483260270609625,7.067982825440443e-19,0.0626915054730453,1049.2245881597817,32375.347116953006
19.598997493734334,1465.169514858423,1416.1035431803925,0.8757589893185469,0.8314089621651526,0.37370305396988923,5.683551530906801e-19,0.0627892321316586,1047.1159138797982,32418.565110212345
19.64912280701754,1490.7826121056232,1440.7500424421962,0.8796972542470944,0.856523037949129,0.3725662179263555,4.14085712970987e-19,0.06287530260421009,1045.009521012032,32462.89248341787
19.69924812030075,1516.716622599584,1465.896259197163,0.8835795274812998,0.8817425792485794,0.37142688818536895,4.907934225919243e-19,0.06294816444804505,1042.9150984202422,32508.353096855684
19.74937343358396,1542.8670589500348,1491.4582241734195,0.8874046269736617,0.9065753213754015,0.3702910322213106,4.908331766677367e-19,0.06300613089858753,1040.8443865734114,32554.966684549163
19.799498746867165,1569.116541655942,1517.3461690318697,0.8911714253688235,0.9304301474329255,0.36916597055844397,4.0984233655191927e-19,0.06304736567581025,1038.8114704564614,32602.748315911274
19.849624060150376,1595.3307555800177,1543.4616388329925,0.8948788640419975,0.9525948622443595,0.3680606854809241,4.088905845683998e-19,0.06306985535018915,1036.833307494997,32651.707689727442
19.899749373433583,1621.3528086578956,1569.6952875922152,0.8985259639994441,0.9721913844530793,0.36698642894840394,1.3901120990325077e-19,0.06307135297836945,1034.9307980364904,32701.848225851263
19.94987468671679,1646.9929225374922,1595.9265362379194,0.9021118397633056,0.9880659243889971,0.3659581900208594,2.5337082274029374e-20,0.06304923827917223,1033.1314134793756,32753.165854812316
20.0,1672.0,1622.0354083964082,0.9056357355378896,0.9983885595333786,0.365,1.2963787820642984e-20,0.06300000000000001,1031.4787825392157,32805.64719115232
