z,T,t,fs,fl,x,y,w,rhob,p
0.0,634.416757274043,505.0,0.0,0.0,0.16090763345410894,0.2369002838218935,0.047731405388903095,1268.0,14330.0
0.06688963210702341,685.4630446208777,583.1149213519283,0.00026079191671535225,0.0,0.1609885396333059,0.23681937762403493,0.04773140535939279,1267.943606339729,14409.147337048415
0.13377926421404682,725.498664304014,643.8963376301137,0.0007312650661103976,0.0,0.1611344951824471,0.2366734216076336,0.047731404620497096,1267.841870820271,14496.501355924882
0.2006688963210702,757.2443670137487,691.8015828691516,0.0014162963906995333,0.0,0.16134700885143805,0.23646090397964534,0.0477313983599886,1267.6937362097983,14590.218436024423
0.26755852842809363,782.6238783984884,729.9145285393738,0.0023018864063199056,0.0,0.16162172316844628,0.23618617188469557,0.047731370247076396,1267.50222079162,14688.817874722325
0.33444816053511706,803.0434007175292,760.4538329162223,0.003367167798175498,0.0,0.1619521347949524,0.23585570736519182,0.047731286605465925,1267.2718184265343,14791.112658578377
0.4013377926421404,819.5562040133711,785.0612204126653,0.004590230354431512,0.0,0.16233140346867295,0.23547631972336314,0.047731098477050884,1267.0072401020614,14896.15222135009
0.46822742474916385,832.9656316048636,804.9770367680646,0.005950643384742371,0.0,0.1627531429519778,0.23505436058853202,0.047730751134981854,1266.712873706985,15003.176503689341
0.5351170568561873,843.894267368595,821.1554077650698,0.0074303370753111475,0.0,0.1632117043785936,0.2345954476895858,0.04773019534176194,1266.3925996274363,15111.577659157409
0.6020066889632106,852.8294958067268,834.3388311063846,0.009013774901596917,0.0,0.16370223665862788,0.23410440943070626,0.04772939522565896,1266.0497577882822,15220.870796294828
0.6688963210702341,860.1568387080287,845.1118551112542,0.010687789653822563,0.0,0.16422063787810354,0.23358533514778232,0.04772833089921271,1265.6871845485528,15330.66929932544
0.7357859531772575,866.1858568654375,853.9418010405585,0.012463933885491486,0.0,0.16477048795822666,0.2330346416032294,0.04772699712123367,1265.3023789060978,15440.666017160378
0.8026755852842808,871.1606533885503,861.1963229024481,0.0143227610006751,0.0,0.16534575972766266,0.23245835974954357,0.04772539987409639,1264.8995492764848,15550.617808694704
0.8695652173913043,875.278040157531,867.1711229315716,0.01624846335886822,0.0,0.16594156163195267,0.23186138975433337,0.04772355278075693,1264.482121382387,15660.332142699523
0.9364548494983277,878.6976832948366,872.1055238563787,0.018234746248259368,0.0,0.16655595710775753,0.23124567952062824,0.04772147377509027,1264.0514662377711,15769.657757676454
1.0033444816053512,881.5489631839935,876.193113215246,0.020276398111198767,0.0,0.16718734717500386,0.23061284051244227,0.047719182599674066,1263.6087216286808,15878.476411548867
1.0702341137123745,883.9368430811892,879.5907088574337,0.022369116923493644,0.0,0.16783441508120658,0.2299642020379346,0.047716699109810926,1263.1548287258736,15986.696549573613
1.137123745819398,885.9467091990421,882.4257166794318,0.024509355625068594,0.0,0.16849607740833517,0.22930085946427986,0.04771404220108094,1262.6905649200598,16094.247963274154
1.2040133779264213,887.6481021751913,884.8017830628412,0.026694196665649466,0.0,0.1691714446305493,0.22862371328132122,0.04771122921077297,1262.2165706214575,16201.077607359675
1.2709030100334449,889.0977124088093,886.8033182501789,0.028921246698309522,0.0,0.16985978820173445,0.22793350183564265,0.047708275635930844,1261.7333718763925,16307.14620794773
1.3377926421404682,890.3418331104637,888.4991903578754,0.03118854662072412,0.0,0.17056051260027508,0.22723082924810764,0.04770519507388411,1261.2413997872668,16412.425475828444
1.4046822742474916,891.4182548384282,889.9455728932609,0.033494500179223875,0.0,0.1712731332285769,0.2265161875460046,0.04770199927242489,1260.7410059787169,16516.895944729466
1.471571906354515,892.3578816632443,891.1883686242954,0.03583781089418051,0.0,0.17199725697480192,0.22578997619121732,0.047698698272053995,1260.2324763149284,16620.545140424583
1.5384615384615383,893.1859742017781,892.2650713000344,0.03821743251971831,0.0,0.17273256698776876,0.22505251740609652,0.04769530056538659,1259.71604169972,16723.366173174792
1.6053511705685617,893.9231987436999,893.2063346003466,0.0406325261187376,0.0,0.17347880952292613,0.22430406944213044,0.04769181327847456,1259.1918874581772,16825.35656330441
1.6722408026755853,894.5864684762712,894.0372287009067,0.04308242491029336,0.0,0.17423578319321417,0.2235448374395855,0.04768824234556444,1258.6601610339915,16926.51730834538
1.7391304347826086,895.1896206507915,894.778250803658,0.04556660545710261,0.0,0.17500333017349595,0.22277498232432177,0.047684592669210504,1258.120978307776,17026.852138633123
1.806020066889632,895.7439893736034,895.4461789980104,0.048084662743410035,0.0,0.1757813286048804,0.22199462849997495,0.04768086827288049,1257.5744290700147,17126.366901204907
1.8729096989966554,896.2588495073322,896.054733530722,0.05063629059678863,0.0,0.1765696866337395,0.22120386988902557,0.04767707242759559,1257.0205813241816,17225.06908449077
1.9397993311036787,896.7418000918256,896.6151474409116,0.053221264415387826,0.0,0.1773683371583404,0.22040277526100802,0.04767320777027082,1256.4594850867759,17322.9674201916
2.0066889632107023,897.1990640220955,897.1366122381288,0.055839427477841624,0.0,0.17817723366790186,0.21959139245476206,0.047669276400656706,1255.891175400896,17420.0715749817
2.0735785953177257,897.6357392559132,897.6266511381335,0.0584906792680385,0.0,0.17899634669623576,0.21876975197869739,0.04766527996657264,1255.3156749076888,17516.391899088354
2.140468227424749,898.0560049536009,898.0914249505403,0.06117496573297619,0.0,0.17982566086395635,0.2179378700146012,0.04766121973666711,1254.732995992945,17611.939226020313
2.2073578595317724,898.4632856049074,898.535975125532,0.06389227142462504,0.0,0.1806651724933914,0.2170957508403257,0.047657096659865714,1254.1431425189833,17706.724715163356
2.274247491638796,898.8603923039652,898.9644322078838,0.06664261261791365,0.0,0.18151488752040393,0.21624338895142514,0.04765291141827284,1253.546111341864,17800.759724399708
2.341137123745819,899.2496328129174,899.3801768823893,0.06942603190218849,0.0,0.18237481985344905,0.21538077072844727,0.047648664468831044,1252.9418935038095,17894.05571170311
2.4080267558528425,899.6329074724933,899.7859781388472,0.07224259342760637,0.0,0.1832449899315422,0.21450787590232565,0.047644356080256106,1252.3304752814036,17986.624156870577
2.474916387959866,900.0117874971177,900.1841018840325,0.07509237905723326,0.0,0.18412542355694575,0.21362467874055568,0.04763998636285977,1251.7118390340377,18078.476501562123
2.5418060200668897,900.3875837168687,900.5763989261193,0.07797548510705907,0.0,0.18501615090614668,0.2127311490521534,0.04763555529374631,1251.085963922686,18169.62410347955
2.608695652173913,900.7614113140406,900.9643755753979,0.08089201952570411,0.0,0.185917205674181,0.2118272530571179,0.04763106273861057,1250.4528265317367,18260.078203892688
2.6755852842809364,901.1342557627516,901.3492432368561,0.08384209953789563,0.0,0.1868286243594395,0.2109129541129441,0.04762650846963259,1249.8124013883887,18349.84990572191
2.74247491638796,901.5070546128812,901.7319518082938,0.0868258494171443,0.0,0.18775044558766937,0.2099882134013996,0.04762189218251864,1249.1646614536514,18438.950165506732
2.809364548494983,901.8808132756955,902.1131966670131,0.08984339839223915,0.0,0.1886827094763425,0.20905299057411328,0.04761721351224319,1248.5095785836825,18527.3897994155
2.8762541806020065,902.2567913615609,902.4933965401073,0.09289487831229133,0.0,0.18962545692572505,0.2081072444727653,0.04761247205085004,1247.8471240444765,18615.179512887957
2.94314381270903,902.6368162268727,902.8726384141609,0.09598042082656227,0.0,0.19057872876258067,0.20715093399909118,0.04760766736912265,1247.177269133596,18702.32996604731
3.0100334448160533,903.0238199534466,903.250620859557,0.09910015377730695,0.0,0.19154256464483174,0.20618401922784962,0.047602799044454434,1246.4999859754816,18788.851900733895
3.0769230769230766,903.4226725344621,903.6267688938912,0.10225419746721966,0.0,0.19251700192779156,0.20520646255876715,0.04759786668958417,1245.8152483443573,18874.75636371888
3.1438127090301,903.8413221601911,904.0010284086043,0.10544266440810476,0.0,0.19350207558510044,0.2042182287948936,0.0475928699514759,1245.1230317179616,18960.055075624306
3.2107023411371234,904.2917368768415,904.3762440789598,0.10866567380784371,0.0,0.1944978225981844,0.20321928067440234,0.047587808386836544,1244.4233100765487,19044.760943698024
3.277591973244147,904.7895672408632,904.7622934569313,0.111923399481009,0.0,0.1955042964796957,0.20220956409049268,0.04758268105636773,1243.7160453199654,19128.888623099767
3.3444816053511706,905.3513477052608,905.1787891987398,0.11521615779228583,0.0,0.19652159393224206,0.20118898095920174,0.04757748577628337,1243.0011678398973,19212.454827210342
3.411371237458194,905.99009941489,905.6512497709833,0.11854449344523865,0.0,0.19754988083736277,0.20015736275173507,0.04757221836156406,1242.2785575535268,19295.478068812245
3.4782608695652173,906.7121782618498,906.2019704662303,0.12190919409083988,0.0,0.19858939661375555,0.1991144659950002,0.04756687240270459,1241.548040622078,19377.977833840985
3.5451505016722407,907.517281073736,906.8434602102375,0.12531120498418355,0.0,0.19964042817611033,0.19805999863249804,0.04756143977120357,1240.80940818298,19459.973551249575
3.612040133779264,908.4004921761237,907.5780584046306,0.12875148314799087,0.0,0.20070326537391794,0.19699366509637264,0.0475559114272139,1240.0624483289293,19541.48377344561
3.6789297658862874,909.3546484145357,908.4012262104344,0.13223081657555327,0.0,0.20177814549252526,0.1959152222548455,0.04755027812858368,1239.3069855926726,19622.525725466323
3.7458193979933108,910.3719936673807,909.3050001489327,0.13574957706022162,0.0,0.2028651769217658,0.19482455601775536,0.047544530864309646,1238.5429346330918,19703.115155329888
3.812709030100334,911.4450601238641,910.2803522585909,0.13930728532339373,0.0,0.20396420438378382,0.19372181623771298,0.047538661058451434,1237.7703943838558,19783.26636635278
3.8795986622073575,912.5669428824189,911.3183982331952,0.14290175635746383,0.0,0.20507454377426793,0.19260768190591016,0.04753266062869984,1236.9898328965994,19862.99233249333
3.9464882943143813,913.7311220506889,912.4107736676407,0.14652729617199417,0.0,0.2061944225945579,0.19148392071998147,0.04752652198633574,1236.2024772765012,19942.30480359264
4.013377926421405,914.9308213983951,913.5493796008228,0.15017110099962497,0.0,0.20731986257431123,0.19035450645654853,0.047520238028665895,1235.4110923138355,20021.21436414142
4.080267558528428,916.1577402880687,914.7255224585437,0.1538063338175982,0.0,0.20844253125483914,0.18922776742117162,0.04751380219165563,1234.6214776458378,20099.73034938288
4.147157190635451,917.3999963928823,915.9283703757559,0.15738109406317033,0.0,0.20954631921146916,0.18811980933583664,0.047507208623593415,1233.8448530407495,20177.860545747968
4.214046822742475,918.6398436800096,917.1430530351978,0.1608075482747648,0.0,0.21060396721715302,0.18705788840858917,0.04750045255381089,1233.100208990343,20255.6105925116
4.280936454849498,919.8536991639306,918.3500113250452,0.16396811905353365,0.0,0.21157898676048661,0.18607849116876432,0.047493530851088574,1232.4129687153466,20332.983199716695
4.3478260869565215,921.0177860383748,919.5280820144947,0.1667571960442752,0.0,0.2124386034856981,0.1852143913274006,0.04748644249845462,1231.8059688435208,20409.977777796837
4.414715719063545,922.11666442336,920.6603466212501,0.16913369731873942,0.0,0.2131700678555652,0.18447833912782075,0.04747918861437284,1231.2880935477622,20486.591071033792
4.481605351170568,923.1462746037603,921.7375378307648,0.1711283507114693,0.0,0.21378291493533552,0.18386080120990925,0.04747177189644704,1230.8526997247145,20562.818636442054
4.548494983277592,924.110409201755,922.7571476050822,0.1728087657601812,0.0,0.21429812578584911,0.18334079875939438,0.04746419589794954,1230.4851694412891,20638.65617868996
4.615384615384615,925.0160749979503,923.720869644054,0.17424546647203684,0.0,0.21473758667803153,0.18289644792856813,0.047456464451144584,1230.1702546927536,20714.100255489226
4.682274247491638,925.8708413679309,924.6325725153342,0.17549727888323866,0.0,0.21511955427116897,0.1825094944350555,0.047448581314868156,1229.8952370033865,20789.14847370753
4.749163879598662,926.6818063967983,925.4970947812524,0.17660913334982176,0.0,0.21545797332785585,0.18216599572240902,0.04744054997783132,1229.6504025511408,20863.799458102352
4.816053511705685,927.4553211373213,926.3195741837729,0.17761442335252384,0.0,0.21576320848471753,0.18185558912682287,0.047432373559769134,1229.4285320454028,20938.052735152036
4.882943143812708,928.1969960143546,927.1050837345653,0.1785380283439944,0.0,0.21604293200357258,0.18157060409850734,0.04742410493898024,1229.224247042701,21011.90861551206
4.949832775919732,928.9118522388328,927.8584706917039,0.17939916741020223,0.0,0.21630287547862523,0.18130531052503052,0.04741598062473298,1229.033392897467,21085.36808617066
5.016722408026756,929.6042141021403,928.5842580986147,0.18021190086933678,0.0,0.21654738618336947,0.18105536237977352,0.04740801999623718,1228.8529302922755,21158.43271225696
5.083612040133779,930.2778409909611,929.2865527751239,0.18098703357513166,0.0,0.2167798294557394,0.18081739531385138,0.047400213461274335,1228.680523647659,21231.104540959244
5.150501672240803,930.936012859045,929.9690432772885,0.1817330869852994,0.0,0.21700285955492274,0.18058875581618847,0.04739255328359807,1228.5143309366977,21303.386022655013
5.217391304347826,931.5815911161365,930.6350163866065,0.18245689519576144,0.0,0.21721860483315172,0.18036731605903794,0.04738503341086695,1228.3528748136116,21375.27994621758
5.2842809364548495,932.2170765061281,931.2873883274968,0.18316404144141185,0.0,0.21742880341660448,0.1801513382369183,0.04737764929767044,1228.1949482420598,21446.789380183247
5.351170568561873,932.8446562964722,931.928736878029,0.18385915818146634,0.0,0.21763489651703233,0.17993938127193884,0.047370397759985985,1228.0395496194064,21517.91762528131
5.418060200668896,933.4662480901187,932.5613375793326,0.1845461521433128,0.0,0.2178380984542315,0.17973023080860448,0.04736327683426641,1227.8858341282394,21588.66817206795
5.48494983277592,934.0835370931786,933.1871980278025,0.1852283664538371,0.0,0.2180394471307986,0.17952284875429902,0.04735628565660669,1227.7330786903258,21659.044665633235
5.551839464882943,934.698008269225,933.8080897943129,0.18590870092367537,0.0,0.2182398414999391,0.1793163358249095,0.04734942435850384,1227.580655968009,21729.050875758876
5.618729096989966,935.310975437082,934.425579228224,0.18658970481376388,0.0,0.21844007048561845,0.1791099026375187,0.04734269396969678,1227.428014315524,21798.69067094765
5.68561872909699,935.9236048582047,935.0410533248527,0.18727364440459013,0.0,0.21864083405456167,0.1789028486484746,0.047336096342547034,1227.2746631765688,21867.967997356616
5.752508361204013,936.5369371136194,935.6557446646391,0.18796255774964749,0.0,0.21884276030901628,0.17869454507061525,0.04732963407850024,1227.1201612530895,21936.886860221
5.8193979933110365,937.1519048073466,936.2707520363884,0.18865829517686986,0.0,0.21904641813372186,0.1784844222340095,0.047323310471480404,1226.9641077539522,22005.45130878145
5.88628762541806,937.7693483504385,936.8870592211483,0.189362552061001,0.0,0.21925232743758627,0.17827195935136003,0.047317129456350936,1226.8061353143953,22073.665423337487
5.953177257525083,938.3900294440805,937.505551294803,0.19007689462685537,0.0,0.21946096722221162,0.17805667645552525,0.04731109556501413,1226.6459044215865,22141.533304471857
6.020066889632107,939.0146422852881,938.1270283284651,0.19080278003517537,0.0,0.21967278186266684,0.17783812812340802,0.04730521389225483,1226.4830990753144,22209.05906408371
6.08695652173913,939.6438237151692,938.7522179343125,0.1915415734480043,0.0,0.21988818645019123,0.177615898137861,0.04729949006208826,1226.3174231017756,22276.246817845855
6.153846153846153,940.2781613188679,939.3817853387831,0.1922945610174547,0.0,0.22010757085484176,0.17738959542806698,0.047293930204836125,1226.1485973475224,22343.100678974577
6.220735785953177,940.9182008374227,940.0163426560539,0.1930629613414973,0.0,0.22033130331352768,0.1771588504846443,0.0472885409333033,1225.9763572049953,22409.6247530715
6.2876254180602,941.5644522355859,940.656456501027,0.1938479345655193,0.0,0.22055973327792613,0.17692331251384,0.04728332932571689,1225.8004506462416,22475.823133864058
6.354515050167223,942.2173950016925,941.3026546471998,0.1946505902220777,0.0,0.2207931938675317,0.17668264698620395,0.047278302910898136,1225.620636529152,22541.699899697367
6.421404682274247,942.8774827932616,941.9554318626457,0.19547199409109292,0.0,0.22103200401735537,0.1764365334904396,0.04727346965428001,1225.436683115368,22607.25911076746
6.488294314381271,943.5451472734441,942.6152547125591,0.19631317387100328,0.0,0.22127647024847077,0.1761846639634693,0.047268837949632235,1225.2483668444913,22672.504806744684
6.555183946488294,944.2208016609219,943.2825659922001,0.19717512457463424,0.0,0.22152688835687812,0.17592674100254765,0.04726441660793006,1225.0554711681411,22737.441005094483
6.622073578595318,944.904843640875,943.9577883323133,0.19805881303738823,0.0,0.22178354481846257,0.1756624764602868,0.04726021485209615,1224.8577855750998,22802.071699574386
6.688963210702341,945.5976580532836,944.641327510671,0.19896518225758386,0.0,0.22204671814452817,0.17539159008933375,0.047256242309637056,1224.6551046529532,22866.4008592551
6.7558528428093645,946.2996192145529,945.3335752834038,0.19989515528863067,0.0,0.22231668009480632,0.17511380832911433,0.04725250900755112,1224.4472272462444,22930.432427769698
6.822742474916388,947.0110929835693,946.0349118758036,0.20084963885424376,0.0,0.22259369680208807,0.1748288631805807,0.04724902536872641,1224.233955674194,22994.17032276379
6.889632107023411,947.7324386600122,946.7457082554657,0.201829526820157,0.0,0.2228780298551295,0.17453649112292674,0.04724580220613328,1224.0150949796623,23057.61843575349
6.956521739130435,948.4640106425661,947.4663280809607,0.20283570334682574,0.0,0.22316993727607373,0.1742364321349087,0.0472428507213199,1223.7904522463316,23120.78063191399
7.023411371237458,949.206159991967,948.1971295337465,0.20386904597611416,0.0,0.22346967448282257,0.17392842873175499,0.047240182498819845,1223.559835930633,23183.66075032931
7.090301003344481,949.9592358257104,948.9384669211198,0.2049304284703869,0.0,0.22377749516906217,0.17361222508362542,0.04723780950410673,1223.3230552465195,23246.262604155938
7.157190635451505,950.7235866229104,949.690692167477,0.2060207235357195,0.0,0.22409365215078153,0.17328756616773006,0.047235744079491875,1223.0799195754387,23308.589981054076
7.224080267558528,951.4995614208675,950.4541561690977,0.20714080536151552,0.0,0.2244183981557128,0.17295419697737768,0.047233998939765084,1222.8302379158658,23370.646643738113
7.290969899665551,952.2875109386343,951.2292100462674,0.2082915520311747,0.0,0.22475198656977832,0.17261186177343849,0.0472325871694218,1222.573818360229,23432.4363305047
7.357859531772575,953.0877886040921,952.0162062937436,0.209473847727711,0.0,0.22509467212505105,0.17226030339481532,0.04723152221601984,1222.3104676166242,23493.96275607657
7.424749163879598,953.9007515432367,952.8154998638339,0.2106885848511152,0.0,0.22544671155451868,0.1718992626010998,0.04723081788690877,1222.0399905487384,23555.229612272014
7.4916387959866215,954.726761474241,953.6274491548393,0.2119366659039529,0.0,0.2258083641807484,0.17152847748192832,0.04723048834159822,1221.7621897664108,23616.24056898103
7.558528428093645,955.5661855687184,954.4524169484735,0.21321900527168777,0.0,0.22617989246864004,0.17114768290155075,0.04723054808569137,1221.4768652383552,23676.999275053586
7.625418060200668,956.4193972595469,955.2907712875862,0.214536530848344,0.0,0.22656156253173163,0.17075660998978803,0.04723101196314441,1221.1838139382774,23737.509359292453
7.692307692307692,957.2867769716667,956.1428862728385,0.21589018544851454,0.0,0.2269536445747675,0.17035498569687285,0.04723189514631117,1220.8828295373135,23797.774431559552
7.759197324414715,958.1687128700186,957.0091428629759,0.2172809282040557,0.0,0.22735641332797366,0.16994253235565995,0.047233213127337775,1220.573702098995,23857.798083781483
7.826086956521738,959.0656014833869,957.8899295546532,0.21870973564708204,0.0,0.22777014839060977,0.16951896733535438,0.047234981704823174,1220.2562178427195,23917.5838911831
7.892976588628763,959.9778483789468,958.7856430990643,0.22017760284278684,0.0,0.2281951345853152,0.1690840026832425,0.04723721697229958,1219.9301588954238,23977.13541337463
7.959866220735786,960.9058687339683,959.6966891175759,0.22168554425539194,0.0,0.2286316622351069,0.16863734484434356,0.04723993530260489,1219.59530310145,24036.456195602725
8.02675585284281,961.8500780365242,960.6234764760409,0.22323453104423513,0.0,0.2290800077007411,0.16817871412043986,0.04724315333199523,1219.2514375785418,24095.54976958058
8.093645484949832,962.8109208087277,961.5664342069888,0.22482568521196353,0.0,0.22954049367537419,0.1677077843712089,0.04724688794143461,1218.8983167316267,24154.419654726327
8.160535117056856,963.7888470590018,962.5260002881803,0.22646009678828827,0.0,0.23001343242907926,0.16722423976488965,0.04725115623484776,1218.5357017808542,24213.069360717443
8.227424749163879,964.7843158516791,963.5026220922414,0.22813886072625425,0.0,0.23049913727433302,0.16672776330811623,0.04725597551934882,1218.163352779131,24271.502387873403
8.294314381270903,965.7977983739588,964.4967583690485,0.22986309538972127,0.0,0.23099792832352362,0.16621803108432592,0.04726136327920689,1217.7810246108786,24329.72222847685
8.361204013377925,966.8297784767555,965.5088798439843,0.23163394274749113,0.0,0.23151013256342887,0.16569471217378826,0.047267337149228775,1217.3884669453398,24387.732368049245
8.42809364548495,967.8807531253566,966.539469716226,0.23345256841045497,0.0,0.23203608388546443,0.1651574686182461,0.04727391488455425,1216.985424224154,24445.5362866871
8.494983277591972,968.9512328300925,967.5890241252328,0.2353201616428697,0.0,0.23257612310958206,0.16460595539163742,0.047281114328142415,1216.5716356543005,24503.137460395872
8.561872909698996,970.0417421326691,968.6580526609378,0.23723793545437075,0.0,0.23313059803350203,0.1640398203444484,0.04728895337557889,1216.1468351826916,24560.539362423795
8.62876254180602,971.1528199533371,969.7470787324578,0.23920712644030048,0.0,0.23369986340941876,0.16345870422162392,0.04729744993669882,1215.7107515260782,24617.74546462152
8.695652173913043,972.2850200877513,970.8566400742773,0.24122899483735813,0.0,0.23428428098587722,0.16286224061331972,0.04730662189424767,1215.2631081526868,24674.75923879503
8.762541806020067,973.4389115477409,971.9872890970182,0.24330482429158323,0.0,0.2348842194663343,0.16225005599022016,0.047316487059486295,1214.803623327135,24731.584158069738
8.82943143812709,974.6150790029117,973.1395933311468,0.24543592174365977,0.0,0.23550005450415876,0.16162176970094425,0.04732706312434714,1214.3320101287181,24788.22369826029
8.896321070234114,975.8141231886169,974.3141358348961,0.24762361720657983,0.0,0.23613216866769074,0.1609769939993228,0.047338367609965674,1213.8479764929036,24844.681339252085
8.963210702341136,977.0366612590001,975.5115155463156,0.24986926341697982,0.0,0.23678095136908073,0.16031533410812465,0.04735041781274646,1213.3512252803516,24900.96056636359
9.03010033444816,978.2833272694207,976.732347758363,0.25217423559831453,0.0,0.237446798829105,0.1596363882448673,0.047363230744669735,1212.8414543200793,24957.064871765273
9.096989966555183,979.5547724795989,977.9772644190223,0.2545399309221405,0.0,0.23813011395258193,0.15893974773866734,0.0473768230730863,1212.3183565193194,25012.997755828193
9.163879598662207,980.8516658412296,979.2469146092824,0.25696776813495614,0.0,0.23883130625634189,0.15822499709186785,0.047391211053152985,1211.7816199352853,25068.762728563957
9.23076923076923,982.1746943377073,980.5419648783025,0.25945918692068437,0.0,0.23955079171876947,0.15749171412133042,0.04740641045949094,1211.2309279051692,25124.36331099693
9.297658862876254,983.5245633907729,981.8630996456834,0.262015647265748,0.0,0.24028899263215098,0.15673947009555558,0.047422436512659205,1210.6659591744035,25179.80303657514
9.364548494983277,984.9019972850383,983.2110216268144,0.2646386287372858,0.0,0.2410463374311326,0.15596782989473407,0.04743930380031373,1210.0863880428847,25235.085452613286
9.431438127090301,986.3077394567393,984.5864521385132,0.26732962951989797,0.0,0.24182326044786215,0.15517635224512116,0.04745702619901675,1209.4918845642817,25290.21412164332
9.498327759197323,987.7425529401937,985.9901315827339,0.27009016546119813,0.0,0.24262020167367757,0.1543645899436394,0.04747561678472585,1208.8821147406697,25345.192622922474
9.565217391304348,989.2072205353361,987.4228197081642,0.2729217686775172,0.0,0.24343760638456138,0.15353209022100528,0.04749508774819268,1208.256740814248,25400.024553755295
9.63210702341137,990.7025450394976,988.8852960341093,0.2758259859315668,0.0,0.2442759246998038,0.15267839516827492,0.04751545029844121,1207.6154216054754,25454.713530973186
9.698996655518394,992.2293491155548,990.378360122104,0.2788043762282849,0.0,0.24513561089851335,0.1518030424063793,0.047536714567416656,1206.9578130209875,25509.2631922861
9.765886287625417,993.7884746830033,991.9028317869623,0.2818585071961817,0.0,0.246017122360043,0.150905566130841,0.04755888951121549,1206.2835688233693,25563.67719758311
9.832775919732441,995.3807813757431,993.4595512684471,0.28498994902105296,0.0,0.24692091774756547,0.14998549891088025,0.047581982801853766,1205.5923419280875,25617.959230227338
9.899665551839464,997.0071427954738,995.0493789878473,0.2882002635374708,0.0,0.24784745368277458,0.14904237499959283,0.04760600072825977,1204.8837867494049,25672.11299790185
9.966555183946488,998.6684385641801,996.673195088511,0.29149098311286786,0.0,0.2487971782538061,0.14807573680610878,0.04763094808082984,1204.1575637494234,25726.14223322209
10.033444816053512,1000.3655371279555,998.3318980188704,0.29486356861301466,0.0,0.24977051801242806,0.14708514788150662,0.04765682805283089,1203.4133485131733,25780.050693055106
10.100334448160535,1002.0992589736699,1000.0264018958308,0.29831932209597317,0.0,0.25076785089697007,0.1460702199755029,0.04768364213852257,1202.6508506102318,25833.842155843507
10.167224080267559,1003.8702965318904,1001.7576314893595,0.301859200298811,0.0,0.25178944829871536,0.14503067095020278,0.047711390056540716,1201.869853909379,25887.52041415804
10.234113712374581,1005.6790416057894,1003.5265128750307,0.30548341698618037,0.0,0.2528353514531721,0.14396644837052638,0.04774006973053833,1201.0703025511107,25941.08925728324
10.301003344481606,1007.5251994125292,1005.3339533714797,0.30919055767869424,0.0,0.25390509616209367,0.14287800476197085,0.04776967737831057,1200.252492361535,25994.552431519758
10.367892976588628,1009.4069209879459,1007.1810526895654,0.31297567671270443,0.0,0.2549971208783241,0.14176688950446872,0.04780020791844381,1199.4174823259675,26047.91355278381
10.434782608695652,1011.318636004684,1009.0687873479511,0.31682615731688846,0.0,0.256107478530425,0.14063703692568724,0.047831656136902635,1198.567989735259,26101.175897266003
10.501672240802675,1013.2476109363512,1010.9959626302681,0.320713397807203,0.0,0.25722725112087363,0.1394973519392822,0.04786401850467811,1197.7101881678177,26154.341964254127
10.568561872909699,1015.1679524516109,1012.956901375872,0.3245787866184754,0.0,0.2583381876490688,0.13836607268244885,0.04789729699549746,1196.8567407338728,26207.412665596228
10.635451505016722,1017.0341413054197,1014.9309290282486,0.32831970355836537,0.0,0.25940835134316387,0.13727512511857956,0.04793150434038252,1196.0298287510273,26260.385962743876
10.702341137123746,1018.7849361870515,1016.8658705313061,0.33180079681444496,1.9413278797507638e-08,0.2603956345583573,0.1362666129009575,0.04796666547560662,1195.2587170559982,26313.255353870154
10.769230769230768,1020.3679134633713,1018.6809488079689,0.3349126384753781,2.1985152761407318e-05,0.26126607417654457,0.13537437931335772,0.04800281943645276,1194.5666644133357,26366.00950913488
10.836120401337793,1021.7655431209096,1020.3114342587098,0.3376302834106009,8.034510767565526e-05,0.2620119999815207,0.1346060359475472,0.04803999300025346,1193.9588164471857,26418.634289495763
10.903010033444815,1022.9945054056618,1021.741157229523,0.34000490498359615,0.00017128186137241257,0.2626493946426942,0.13394566003090566,0.048078192682485976,1193.4242116332382,26471.11581141518
10.96989966555184,1024.0875554845213,1022.9919187775412,0.34211506526753316,0.00029123038132167775,0.26320276472463755,0.13336880388540887,0.048117419038022566,1192.9459615688013,26523.442534652855
11.036789297658862,1025.0786453929463,1024.1000017467602,0.34403361836322127,0.000437198183918502,0.26369483205631566,0.13285279588408094,0.048157672892104375,1192.5083967784763,26575.605857622006
11.103678929765886,1025.9965872589642,1025.101364539028,0.3458176201208429,0.0006069314184648923,0.2641433891213857,0.13237988234782283,0.04819895857527471,1192.0992440178586,26627.599865584878
11.170568561872908,1026.8638771159788,1026.026192458139,0.347509238926814,0.0007988620606063944,0.26456158190150897,0.1319369454932833,0.048241284659042295,1191.7094307357108,26679.42078855111
11.237458193979933,1027.697361698844,1026.8980122662624,0.34913912381098144,0.00101199620012456,0.26495895948607934,0.13151445560325878,0.048284663567816494,1191.3323598266888,26731.06648723545
11.304347826086955,1028.5094057989188,1027.734515897537,0.3507296658887596,0.0012457927209431285,0.26534249140023985,0.13110545565175014,0.04832911077662541,1190.9632077298709,26782.53601086933
11.37123745819398,1029.308950443781,1028.548708904624,0.35229737311149517,0.0015000631528354254,0.26571730892114465,0.13070482161019686,0.04837464402140082,1190.5984136890643,26833.82926622454
11.438127090301004,1030.1023934677169,1029.3500108473245,0.3538545700560025,0.0017748901180130847,0.26608723608252544,0.1303087327636664,0.048421282610159336,1190.2353144505803,26884.946766136414
11.505016722408026,1030.8942693644876,1030.145162790006,0.3554105736715526,0.002070564265847346,0.26645515720299506,0.1299143052003253,0.04846904688053593,1189.8718917644005,26935.889445237386
11.57190635451505,1031.6877528230377,1030.9389235203712,0.3569724996998077,0.0023875374774410046,0.26682326909019,0.12951934036206159,0.048517957795423484,1189.5065992981229,26986.6585280616
11.638795986622073,1032.4850441111194,1031.7346154035852,0.35854584975442816,0.002726386431996007,0.26719326469289584,0.1291221419726084,0.04856803664432337,1189.1382366880368,27037.25543194321
11.705685618729097,1033.2876435383498,1032.5345188498836,0.36013491717611734,0.0030877867981459967,0.2675664600844465,0.12872138946624803,0.048619304835496736,1188.7658624871863,27087.68169978769
11.77257525083612,1034.0965590582073,1033.3401744190749,0.3617430942385882,0.003472493412192175,0.2679438905633366,0.12831604219848702,0.04867178375066416,1188.3887282760325,27137.938951480104
11.839464882943144,1034.9124542492232,1034.1526001238396,0.3633730939747636,0.0038813263180461494,0.268326380032426,0.12790527028629595,0.04872549464752296,1188.0062310758979,27188.028850651852
11.906354515050166,1035.7357562038083,1034.9724511666527,0.3650271176851867,0.004315160743300459,0.26871459337072473,0.127488402393644,0.0487804585940592,1187.6178774004316,27237.95308173065
11.97324414715719,1036.5667335481164,1035.8001363931896,0.36670698301981985,0.0047749198711823084,0.26910907645681303,0.127064885819765,0.04883669642624456,1187.223255754897,27287.713334560027
12.040133779264213,1037.405550884186,1036.6359001063024,0.36841421864143004,0.005261570316820631,0.26951028574374,0.12663425699807965,0.04889422871729456,1186.8220162921084,27337.31129436463
12.107023411371237,1038.252308033477,1037.4798815826546,0.37015013921237416,0.005776118822926984,0.2699186116693018,0.12619611813755194,0.04895307575794248,1186.413854687302,27386.748635505
12.17391304347826,1039.1070665586242,1038.3321556009464,0.3719159005340458,0.0063196106367462875,0.2703343958721078,0.12575012003717342,0.049013257538027426,1185.9985002635851,27436.027017742294
12.240802675585284,1039.9698681501336,1039.1927608603914,0.3737125428555359,0.006893128556807956,0.27075794470794906,0.12529594858849982,0.049074793731155086,1185.575706656411,27485.14808433128
12.307692307692307,1040.8407467001464,1040.0617188739657,0.3755410233811325,0.007497792732541659,0.27118953939776225,0.12483331463675718,0.04913770367840184,1185.145244794898,27534.113461266006
12.37458193979933,1041.7197361081844,1040.9390463708737,0.37740224086791574,0.008134761101795038,0.271629443713441,0.12436194629692003,0.04920200636884887,1184.7068975786647,27582.9247572085
12.441471571906353,1042.606875039762,1041.8247630694668,0.3792970544950687,0.008805229878260133,0.2720779098742422,0.12388158305615346,0.04926772042065889,1184.260455790015,27631.58356401564
12.508361204013378,1043.502209682168,1042.7188963060723,0.381226297680202,0.009510434709001356,0.27253518288024753,0.12339197143422406,0.04933486405531849,1183.8057150853551,27680.09145735102
12.5752508361204,1044.4057950579463,1043.6214834478965,0.38319078863822964,0.010251651595565474,0.2730015038260917,0.12289286166365121,0.0494034550731396,1183.3424736942118,27728.449997601336
12.642140468227424,1045.3176955155554,1044.5325729579024,0.38519133802322875,0.011030198260586618,0.2734771123163935,0.12238400526540326,0.04947351082264925,1182.8705307405933,27776.660730709733
12.709030100334447,1046.2379846465049,1045.452224537034,0.38722875459204553,0.011847435464939807,0.2739622482661301,0.12186515323955602,0.049545048168527235,1182.3896849927185,27824.725189060977
12.775919732441471,1047.1667448768926,1046.3805087147316,0.38930384925539624,0.012704768294004269,0.27445715320054265,0.12133605475647848,0.04961808345811522,1181.8997339619082,27872.64489234567
12.842809364548494,1048.1040669627985,1047.3175062237447,0.3914174379885498,0.013603647790425319,0.27496207121002686,0.12079645619131046,0.049692632481751035,1181.4004732418987,27920.421348292282
12.909698996655518,1049.050049354468,1048.2633071526686,0.3935703437954631,0.014545572144829393,0.2754772496033965,0.12024610046236074,0.04976871043661222,1180.8916960608237,27968.056053457934
12.976588628762542,1050.0047976606252,1049.2180101837798,0.39576339808189426,0.015532088417163107,0.27600293939132137,0.11968472653675175,0.049846331882034293,1180.373192951585,28015.55049383753
13.043478260869565,1050.9684240971203,1050.1817217929606,0.39799744145944554,0.016564793821216013,0.27653939558544194,0.11911206912271131,0.049925510698655876,1179.8447515532227,28062.906145519668
13.110367892976589,1051.9410470481455,1051.1545555778941,0.40027332421814726,0.017645337265901968,0.27708687740222365,0.11852785845591106,0.05000626004263035,1179.3061564794448,28110.124475236524
13.177257525083611,1052.9227907045902,1052.1366316771573,0.4025919065173053,0.01877542089890746,0.2776456483814912,0.11793182017117117,0.050088592298018306,1178.7571892480992,28157.20694087896
13.244147157190636,1053.9137847585353,1053.1280762634367,0.4049540583095432,0.01995680136345225,0.2782159764168931,0.11732367526378916,0.050172519032109654,1178.197628273593,28204.15499201741
13.311036789297658,1054.9141642263562,1054.1290211903322,0.40736065918372155,0.02119129154983588,0.27879813377487855,0.11670314005977592,0.050258050941826636,1177.6272488679278,28250.970070321426
13.377926421404682,1055.924069287083,1055.1396036709873,0.4098125979672621,0.022480761715325058,0.2793923970249445,0.1160699262781448,0.05034519780865966,1177.0458233052186,28297.653610043628
13.444816053511705,1056.9436452410482,1056.1599660983873,0.41231077231195806,0.023827141166764734,0.2799990469801292,0.11542374107994605,0.050433968443523054,1176.4531208795713,28344.20703840978
13.511705685618729,1057.9730424925176,1057.1902559047162,0.41485608811823815,0.025232419522610683,0.28061836857812983,0.11476428717884894,0.050524370637185644,1175.8489080054937,28390.631776049086
13.578595317725751,1059.0124165962802,1058.2306254999376,0.4174494588965351,0.026698648062290102,0.2812506507461098,0.11409126296749897,0.05061641110839195,1175.2329483302806,28436.929237399367
13.645484949832776,1060.0619283686462,1059.2812322851912,0.4200918050665256,0.028227941255155358,0.28189618625235713,0.11340436265594393,0.05071009544754673,1174.605002856492,28483.100831092102
13.712374581939798,1061.121743998533,1060.342238678935,0.42278405313162243,0.02982247775042403,0.28255527150564924,0.11270327646515434,0.05080542806917987,1173.964830101151,28529.147960379436
13.779264214046822,1062.1920352531881,1061.4138122417887,0.4255271348401204,0.031484502005337575,0.28322820636905,0.11198769080249932,0.05090241215159931,1173.3121862460928,28575.072023507466
13.846153846153845,1063.272979657383,1062.496125785805,0.42832198621323114,0.03321632515503534,0.2839152939124629,0.11125728850244708,0.051001049589689894,1172.6468253308287,28620.87441414859
13.91304347826087,1064.3647607498228,1063.5893575624061,0.4311695465396699,0.03502032637419879,0.284616840169564,0.11051174906002056,0.051101340937355376,1171.9684994435456,28666.556521799488
13.979933110367892,1065.4675683449152,1064.6936914612918,0.43407075727019684,0.0368989539081928,0.2853331538556038,0.10975074890500199,0.051203285355082416,1171.2769589396412,28712.119732207557
14.046822742474916,1066.581598808899,1065.8093172284848,0.4370265608417264,0.03885472592330464,0.2860645460589736,0.10897396170319018,0.05130688056025149,1170.5719526786743,28757.56542780831
14.113712374581938,1067.7070554027694,1066.9364307487167,0.4400378994165203,0.04089023171619989,0.2868113299185715,0.10818105866961004,0.05141212276849396,1169.8532282729248,28802.894988156393
14.180602006688963,1068.844148577735,1068.0752342901058,0.4431057135469999,0.04300813211924589,0.28757382025520306,0.10737170893198553,0.05151900665075796,1169.1205323666518,28848.10979039555
14.247491638795985,1069.9930963698603,1069.2259368408756,0.446230940737912,0.04521116057703784,0.2883523331931486,0.10654557989998642,0.051627525274328435,1168.3736109250253,28893.2112097156
14.31438127090301,1071.1541247431157,1070.3887544038218,0.44941451394309684,0.047502123408585506,0.2891471857381345,0.1057023376824378,0.051737670059928076,1167.6122095520145,28938.20061984472
14.381270903010034,1072.3274679927335,1071.563910347806,0.45265735996021594,0.04988390033987575,0.2899586953338346,0.10484164752417811,0.05184943073104654,1166.836073825168,28983.079393545086
14.448160535117056,1073.5133691630808,1072.7516357751256,0.45596039772224867,0.05235944483260453,0.2907871793824638,0.10396317427966915,0.05196279526539296,1166.044949656262,29027.848903129994
14.51505016722408,1074.71208043698,1073.9521698670965,0.4593245365487039,0.05493178389436852,0.2916329547382351,0.10306658291648302,0.05207774985645436,1165.2385836700669,29072.51052099592
14.581939799331103,1075.9238636219122,1075.1657603184328,0.4627506742068046,0.057604018342555505,0.2924963371601315,0.10215153905641722,0.052194278860893034,1164.4167236155329,29117.065620175872
14.648829431438127,1077.1489905430483,1076.3926636925667,0.4662396950068267,0.060379322049477165,0.2933776407442883,0.10121770954271894,0.052312364768053246,1163.5791187883106,29161.515574903446
14.71571906354515,1078.3877435495556,1077.6331458807445,0.4697924676691846,0.06326094171089842,0.2942771773073508,0.10026476305278366,0.05243198815245024,1162.725520492606,29205.86176120591
14.782608695652174,1079.640415956085,1078.8874825071687,0.47340984319370283,0.06625219582126261,0.29519525574764127,0.09929237073742954,0.0525531276423448,1161.8556825171027,29250.105557507297
14.849498327759196,1080.9073125152265,1080.1559593654806,0.47709265260867595,0.0693564735615799,0.29613218137058733,0.09830020689603387,0.052675759886214014,1160.9693616382483,29294.248345251213
14.91638795986622,1082.1887499303132,1081.4388728950323,0.48084170454650216,0.07257723356606782,0.2970882551626595,0.09728794970335963,0.05279985951616062,1160.0663181629582,29338.291509556857
14.983277591973243,1083.4850572780629,1082.7365305810533,0.484657782908717,0.07591800185282682,0.2980637730678983,0.0962552819386239,0.052925399129423144,1159.1463164674635,29382.236439862183
15.050167224080267,1084.7965765610063,1084.04925147513,0.4885416441699759,0.07938237009372928,0.2990590251741704,0.09520189180199719,0.053052349251570145,1158.2091256073873,29426.084530633238
15.11705685618729,1086.1236631160045,1085.3773665916196,0.4924940148834697,0.0829739927827493,0.3000742949270576,0.0941274737100834,0.05318067832530221,1157.2545199048218,29469.837182038107
15.183946488294314,1087.4666861283981,1086.7212194037427,0.49651558885195235,0.08669658455235774,0.30110985825659586,0.09303172917684593,0.05331035268452331,1156.2822796044345,29513.49580068434
15.250836120401337,1088.8260290769313,1088.0811662828062,0.5006070243301577,0.0905539167511781,0.3021659826953669,0.09191436770736619,0.05344133654093082,1155.292191536421,29557.061800350766
15.31772575250836,1090.2020901463277,1089.4575769136056,0.504768941200746,0.09454981353235367,0.30324292647931345,0.0907751077115248,0.05357359197599761,1154.2840497941452,29600.536602722455
15.384615384615383,1091.5952827091053,1090.8508347786199,0.5090019178161586,0.09868814771079089,0.30434093755299335,0.08961367751369685,0.05370707892375218,1153.2576564877504,29643.921638192965
15.451505016722408,1093.006035633645,1092.2613374904392,0.5133064881758173,0.1029728356344659,0.30546025264669247,0.08842981629695827,0.0538417551777372,1152.2128224439787,29687.218346592676
15.51839464882943,1094.4347937304399,1093.6894972567634,0.5176831385415773,0.10740783195612062,0.30660109619956866,0.0872232752004319,0.05397757637800593,1151.1493680284236,29730.428178032304
15.585284280936454,1095.8820180062985,1095.1357411767456,0.5221323044347392,0.11199712339597656,0.3077636793686371,0.08599381833746059,0.054114496022618905,1150.0671239045487,29773.55259365879
15.652173913043477,1097.348185970382,1096.6005115918426,0.5266543672859763,0.11674472210770588,0.3089481989375045,0.08474122391544973,0.05425246546953452,1148.9659318745778,29816.593066479454
15.719063545150501,1098.8337918712505,1098.0842663813319,0.5312496510568415,0.12165465826427883,0.3101548362048251,0.08346528538040307,0.05439143394446438,1147.8456457409743,29859.55108218388
15.785953177257525,1100.3393468017944,1099.5874791426868,0.5359184190836992,0.12673097192444838,0.3113837559241961,0.08216581251475179,0.05453134856102851,1146.706132133579,29902.428139906326
15.852842809364548,1101.865378879376,1101.1106394513497,0.5406608703405954,0.13197770417580165,0.31263510507416514,0.08084263270785157,0.054672154326347956,1145.5472714749465,29945.225753104438
15.919732441471572,1103.4124331640676,1102.654252883746,0.5454771363711829,0.13739888750074902,0.31390901180374564,0.07949559205724949,0.054813794172651656,1144.3689588166412,29987.945450274394
15.986622073578594,1104.9809595140796,1104.218559793623,0.5503663853022618,0.14299999580058242,0.3152053239531655,0.07812481561184553,0.05495621580088088,1143.1712766670837,30030.604703974597
16.05351170568562,1106.5714060257462,1105.8035834806678,0.5553262076208774,0.14878882443836466,0.3165234276307097,0.07673088845712511,0.05509937749122794,1141.954615468519,30073.246806741117
16.120401337792643,1108.1846443144739,1107.4102326851646,0.5603562621638188,0.15476952355328644,0.31786331011220065,0.07531379796790791,0.05524322039821105,1140.7189713345945,30115.87577497283
16.187290969899664,1109.8215306903778,1109.0394069507402,0.5654562825014245,0.16094596427634758,0.31922498017852624,0.07387351007820118,0.05538768280484774,1139.4643281331564,30158.49291202227
16.254180602006688,1111.4828934934474,1110.6919583850774,0.5706259220678845,0.16732197490366804,0.3206084229049244,0.07241001437084346,0.05553270127843162,1138.1906876371354,30201.099563074993
16.321070234113712,1113.1695425169846,1112.368705617606,0.5758647510733264,0.17390132284090362,0.3220135986286072,0.07092332522316006,0.0556782106797546,1136.8980705376348,30243.69711369094
16.387959866220736,1114.8822761869362,1114.0704447045716,0.5811722543143595,0.18068769700609186,0.32344044216536233,0.06941348270093782,0.05582414419532544,1135.586517253577,30286.286988428452
16.454849498327757,1116.6218866414729,1115.7979570568573,0.5865478282459488,0.18768468926847534,0.32488886179141846,0.06788055368784697,0.05597043335773253,1134.2560889151077,30328.870650213787
16.52173913043478,1118.3891633105836,1117.5520153487976,0.5919907784880974,0.19489577568005576,0.32635873834251,0.06632463289891066,0.05611700807665222,1132.9068682565232,30371.44959979839
16.588628762541806,1120.1848952014661,1119.3333876676952,0.5975003174409178,0.20232429732365986,0.32784992433709464,0.064745843871505,0.05626379667194394,1131.538960492267,30414.025375395937
16.65551839464883,1122.0098721544928,1121.1428402813217,0.6030755614227786,0.20997343953693123,0.32936224294509703,0.06314434011876811,0.05641072589924505,1130.1524943251195,30456.599552645348
16.72240802675585,1123.8648852263295,1122.9811392889983,0.6087155287924562,0.21784621193936252,0.33089548725132245,0.06152030598685704,0.05655772099054281,1128.7476227287434,30499.173744287167
16.789297658862875,1125.7507263531286,1124.8490513377365,0.614419137077178,0.22594542571591927,0.3324494192081523,0.05987395783700536,0.05670470567799871,1127.3245239950265,30541.749600262727
16.8561872909699,1127.6681873744228,1126.7473435558938,0.6201852011854146,0.23427367196352178,0.33402376891853486,0.05820554489546341,0.05685160223229067,1125.8834025300732,30584.328807418875
16.923076923076923,1129.6180585106358,1128.6767828223142,0.626012431071098,0.24283329798013403,0.33561823374732946,0.05651535028742229,0.05699833149030288,1124.4244898075285,30626.91308939505
16.989966555183944,1131.6011263291914,1130.6381344441666,0.6318994296527475,0.2516263829112672,0.33723247750930896,0.054803692001169343,0.05714481288400613,1122.9480452810851,30669.504206361722
17.05685618729097,1133.6181712886826,1132.6321603336887,0.6378446912730659,0.26065471389437306,0.3388661298281094,0.053070923682393197,0.05729096447274692,1121.4543571737513,30712.103954508366
17.123745819397993,1135.66996478934,1134.6596166702398,0.6438465993796108,0.26991975894028364,0.3405187852505039,0.05131743569408164,0.05743670296238876,1119.9437434980534,30754.71416568455
17.190635451505017,1137.7572659253894,1136.7212511915277,0.649903425531816,0.27942264268820766,0.3421900027838172,0.0495436557431476,0.05758194373662361,1118.4165527406044,30797.336706497994
17.25752508361204,1139.8808177274022,1138.8177999873396,0.6560133273632512,0.2891641180675955,0.3438793051070077,0.04775004986004756,0.05772660087158483,1116.8731648513672,30839.97347760002
17.32441471571906,1142.0413431337781,1140.9499839719583,0.6621743475885862,0.2991445403343818,0.345586178121134,0.04593712303236663,0.0578705871581361,1115.3139919680548,30882.62641249065
17.391304347826086,1144.2395405640532,1143.118504954077,0.6683844127811545,0.3093638397321775,0.34731007043698586,0.04410541991482835,0.058013814116568266,1113.739479220188,30925.297476223877
17.45819397993311,1146.4760790443538,1145.3240412636924,0.674641332083424,0.31982149296638335,0.34905039285202594,0.04225552556432625,0.05815619200573664,1112.1501055756253,30967.98866391714
17.525083612040135,1148.7515932141755,1147.5672432062959,0.680942796884954,0.330516498005267,0.350806518154278,0.04038806583664639,0.05829762983725752,1110.5463844219053,31010.701998810335
17.591973244147155,1151.0666776132102,1149.8487278567422,0.6872863794795009,0.34144734414406,0.3525777806141276,0.03850370813215065,0.05843803537350263,1108.9288644642354,31053.439530323125
17.65886287625418,1153.4218810591535,1152.1690738633788,0.6936695332092387,0.3526119880463602,0.35436347597800766,0.036603161614110084,0.05857731513562457,1107.2981301974878,31096.203331528555
17.725752508361204,1155.817700290037,1154.52881557571,0.700089591697161,0.36400782562330447,0.35616286119164114,0.03468717773368853,0.05871537439634109,1105.6548026626813,31138.99549654497
17.792642140468228,1158.2545734876498,1156.9284370145128,0.7065437688952224,0.3756316674345174,0.3579751544159866,0.032756550453589675,0.05885211717530435,1103.9995399706631,31181.818137466114
17.85953177257525,1160.732873522225,1159.3683655545697,0.7130291593228886,0.3874797153343424,0.35979953513720936,0.030812116382904525,0.05898744623064053,1102.3330377713155,31224.673380975448
17.926421404682273,1163.252900468639,1161.8489649277478,0.7195427378977102,0.3995475370230254,0.3616351441818773,0.02885475503690927,0.05912126303993577,1100.656029864479,31267.563364643785
17.993311036789297,1165.8148744915025,1164.3705285077176,0.7260813610617208,0.4118300479465927,0.363481084191639,0.026885388604802062,0.059253467789122945,1098.9692884016192,31310.490232770164
18.06020066889632,1168.4189275154642,1166.9332714860439,0.7326417668266036,0.4243214876897973,0.36533641979541837,0.024904982077056294,0.059383959343343055,1097.2736244442399,31353.456131896495
18.127090301003342,1171.0650954319076,1169.5373234875601,0.739220576242319,0.4370154049842132,0.36720017828932877,0.02291454282538984,0.05951263522731806,1095.5698880621203,31396.463205874155
18.193979933110366,1173.753309376935,1172.1827203263385,0.7458142942814332,0.4499046401343781,0.3690713501828532,0.020915120356842433,0.059639391593137504,1093.8589686264934,31439.51359052171
18.26086956521739,1176.4833868153023,1174.8693955551778,0.7524193112049753,0.4629813109212924,0.3709488899591407,0.018907805853722377,0.059764123187006156,1092.141794950501,31482.60940780789
18.327759197324415,1179.255022759703,1177.5971721071664,0.7590319045388874,0.47623680338546165,0.37283171708563445,0.01689373144928607,0.05988672331787028,1090.419335218293,31525.752759676252
18.394648829431436,1182.0677796417697,1180.3657526790291,0.765648240420401,0.489661759222104,0.3747187168948843,0.014874069689081509,0.060007083811540796,1088.6925971425828,31568.94572119635
18.46153846153846,1184.9210783403562,1183.1747109997991,0.7722643763744824,0.503246073652972,0.3766087419301469,0.012850032452522397,0.06012509497959148,1086.9626276058107,31612.190333531278
18.528428093645484,1187.8141881074803,1186.023479817462,0.778876263169921,0.5169788879278344,0.37850061241370164,0.01082287057681092,0.060240645594877976,1085.2305124246075,31655.488596060888
18.59531772575251,1190.746230365152,1188.9113095981904,0.7854797476337702,0.5308485904435428,0.3803931046582043,0.008793880808692808,0.060353623342513756,1083.49737179887,31698.842458430034
18.662207357859533,1193.7164083672467,1191.8366916211814,0.7920705717131289,0.5448428122483925,0.38228471945199,0.0067645501567931195,0.06046392347914736,1081.7642869709455,31742.25381434403
18.729096989966553,1196.7283437356843,1194.7854547014385,0.7986428308013214,0.5589451956160316,0.38416856538755395,0.004739936892872504,0.0605716000056661,1080.0312148481694,31785.734342547432
18.795986622073578,1199.8704158078992,1197.5554181959797,0.805179240117605,0.5731152511003043,0.3859555426900657,0.002777655826372477,0.06067952439545243,1078.2759230164183,31829.363297976928
18.862876254180602,1203.9130220782622,1199.3709068140006,0.81165989583483,0.5873226409126497,0.3871675373330219,0.001176963597064096,0.060805487071323334,1076.3526364184374,31873.17345558825
18.929765886287626,1210.649994114359,1200.9226709511474,0.8180479124299525,0.6016127105532568,0.38733940081001195,0.00022960575688141366,0.06096696627192808,1074.1238121858821,31917.243232647852
18.996655518394647,1222.04597314573,1204.533487667926,0.8243048564452491,0.6162325741106683,0.38636429686090995,2.9307307863669794e-06,0.06116794987992806,1071.5638223204533,31961.75602259273
19.06354515050167,1238.5585329892015,1213.93388764232,0.830420537791725,0.6316951227790181,0.38503726002349464,-1.6807675289504519e-09,0.061378077895687166,1068.9200386564773,32006.98582557358
19.130434782608695,1259.1527725783421,1228.9849240302538,0.8364156839074337,0.6486180600905117,0.3837018522979436,-1.963167268786722e-15,0.06158368923033193,1066.28259594829,32053.201097237037
19.19732441471572,1282.925060451766,1248.367967179129,0.8423069583058341,0.6674981633444014,0.3823523482314841,5.120840164068732e-19,0.06178400939622881,1063.6339654662793,32100.61720492653
19.26421404682274,1309.2144794371284,1271.1039148722828,0.8481037445582327,0.6886969382541981,0.3809811358279793,1.2611001391679142e-18,0.06197799976111866,1060.9610341973394,32149.40726391435
19.331103678929765,1337.5379704370762,1296.483020835427,0.8538103962722013,0.712434064338233,0.379583156869913,2.425761409799855e-18,0.0621642046780311,1058.25591896731,32199.71364642697
19.39799331103679,1367.5359189754802,1323.990712675433,0.8594280129482201,0.738771395926418,0.37815582156874034,1.7547699101213794e-18,0.06234077754658017,1055.515688202637,32251.6563990836
19.464882943143813,1398.9297619360045,1353.250204163909,0.8649556819471248,0.7675936479800755,0.3766990748479925,8.270593395733023e-19,0.06250549487532524,1052.7423673248552,32305.338748226786
19.531772575250834,1431.487982624779,1383.9765153132564,0.870391340488526,0.7985906671197482,0.3752155221660021,1.2992592247971844e-18,0.06265576322738402,1049.9430488665605,32360.85055909322
19.598662207357858,1464.999432099646,1415.9404702785253,0.8757323421249921,0.831242038305369,0.3737105876749908,8.280980885537229e-19,0.06278861995033128,1047.130056244784,32418.270116312076
19.665551839464882,1499.2521948258773,1448.9408390998249,0.8809758160365269,0.8647991978306323,0.3721927505128023,8.587297420251386e-19,0.06290072283237429,1044.3212433542733,32477.6644560654
19.732441471571907,1534.0163821359242,1482.7824462852068,0.8861188888310392,0.8982644692565379,0.3706738516038225,5.394497426761872e-19,0.06298833159479661,1041.5404182047475,32539.088698047544
19.799331103678927,1569.0287448957818,1517.2591279393382,0.8911588149236253,0.9303526132335203,0.3691696515058855,4.348990698539311e-19,0.06304726299666985,1038.8182184608852,32602.584278365
19.86622073578595,1603.976576445906,1552.140322815811,0.8960930514106847,0.9594169150940149,0.36770086722947926,4.1566806676077114e-19,0.06307280003425798,1036.193857125334,32668.176360321642
19.933110367892976,1638.4739696069826,1587.1616354590437,0.9009193086198636,0.9832617834273268,0.3662957147223937,2.532873668088724e-20,0.06305945594622354,1033.719597833333,32735.870100116852
20.0,1672.0,1622.0358916411571,0.9056356326176116,0.9983841329317636,0.36500000000000005,2.0418016383690076e-20,0.063,1031.4789124434913,32805.64491412059
