z,T,t,fs,fl,x,y,w,rhob,p
0.0,634.4167932380801,505.0,0.0,0.0,0.1609076818533005,0.23690029996130668,0.04773139932668851,1268.0,14330.0
0.02002002002002002,651.0554329029865,530.54042412942,5.764335382383778e-05,0.0,0.16092556470930505,0.236882417104699,0.047731399325734766,1267.9875352006457,14352.701904361347
0.04004004004004004,666.4843051799086,554.1550717395172,0.00013221909481957983,0.0,0.1609487005436679,0.23685928126766986,0.04773139932151845,1267.9714089400982,14376.274270724252
0.06006006006006006,680.8104885995325,576.0242688716794,0.0002248790570653594,0.0,0.1609774466864719,0.2368305351154106,0.047731399306566516,1267.9513721416538,14400.655508010599
0.08008008008008008,694.128900919191,596.3062721591563,0.0003363956108484794,0.0,0.16101204273576494,0.2367959390380155,0.04773139926212764,1267.927257777668,14425.787793236786
0.10010010010010009,706.5240670883285,615.140760914074,0.0004672179917440258,0.0,0.1610526280234749,0.23675535367795347,0.04773139914771459,1267.8989686832135,14451.616887568378
0.12012012012012012,718.0715732115484,632.6516493897323,0.0006175292667300803,0.0,0.16109925927485946,0.23670872226106243,0.047731398885993134,1267.8664652294328,14478.091946738448
0.14014014014014015,728.8392713761348,648.9493746657715,0.000787298938996478,0.0,0.16115192691123176,0.23665605428160394,0.047731398343458194,1267.8297539376656,14505.165331533188
0.16016016016016016,738.8882851781156,664.1327751641172,0.0009763290540026913,0.0,0.16121056933408076,0.23659741120413472,0.04773139730828294,1267.7888774973144,14532.79242200814
0.18018018018018017,748.2738545560135,678.2906460818997,0.0011842932870011601,0.0,0.16127508503118848,0.23653289434292388,0.047731395467443455,1267.7439063010015,14560.931437734507
0.20020020020020018,757.0460500914685,691.5030372988841,0.0014107693338392979,0.0,0.16134534260672712,0.23646263481847107,0.04773139238555329,1267.6949314287617,14589.54326545759
0.22022022022022023,765.2503805224161,703.8423441396615,0.0016552653105713145,0.0,0.16142118895628926,0.23638678537166127,0.04773138748776085,1267.6420589300023,14618.591294931035
0.24024024024024024,772.9283123071964,715.3742301124717,0.001917240994723299,0.0,0.16150245584692047,0.23630551377670347,0.047731380048635315,1267.5854052241898,14648.04126327365
0.2602602602602603,780.1177162934933,726.1584122957153,0.0021961247335770843,0.0,0.16158896515933,0.23621899759648513,0.04773136918831579,1267.5250934424882,14677.861107916198
0.2802802802802803,786.8532536053383,736.2493336308884,0.00249132677319696,0.0,0.16168053302657023,0.2361274200463846,0.04773135387645299,1267.4612505476562,14708.020828020184
0.3003003003003003,793.1667105596746,745.696741466673,0.0028022496655556307,0.0,0.16177697307293967,0.2360309667626646,0.04773133294374658,1267.3940050899405,14738.492354130298
0.3203203203203203,799.0872906098023,754.5461878985612,0.003128296310972984,0.0,0.1618780989252463,0.23592982330278928,0.04773130510025868,1267.3234854780355,14769.249425746482
0.34034034034034033,804.641869873459,762.8394644843243,0.003468876099461403,0.0,0.16198372613911244,0.23582417323417015,0.047731268959215055,1267.249818664143,14800.26747645712
0.36036036036036034,809.855221653678,770.6149815855082,0.003823409531819215,0.0,0.1620936736570733,0.23571419669358967,0.047731223064713474,1267.1731291599185,14831.523526251665
0.38038038038038036,814.7502144367769,777.9081007398072,0.004191331630579029,0.0,0.1622077648931734,0.2356000693215225,0.04773116592164058,1267.0935383153105,14862.996080622639
0.40040040040040037,819.3479871051156,784.7514269975403,0.004572094391738932,0.0,0.16232582852044178,0.23548196149392503,0.04773109602613564,1267.0111638051214,14894.665036068654
0.42042042042042044,823.6681044952178,791.1750669740862,0.004965168479397678,0.0,0.1624476990226266,0.23536003778916112,0.04773101189510056,1266.926119278761,14926.511591618431
0.44044044044044045,827.7286959356453,797.2068574158086,0.0053700443255544905,0.0,0.1625732170594255,0.23523445664003764,0.04773091209350328,1266.838514137413,14958.518166008611
0.46046046046046046,831.5465789912871,802.8725683014152,0.005786232764999944,0.0,0.16270222968467907,0.23510537013087732,0.04773079525851972,1266.74845341,14990.668320163679
0.4804804804804805,835.1373703039962,808.1960838667403,0.006213265309119137,0.0,0.1628345904491734,0.23497292390757693,0.04773066011987164,1266.6560377051399,15022.946684643335
0.5005005005005005,838.5155851401104,813.1995644198787,0.00665069414142122,0.0,0.16297015941344492,0.23483725717504156,0.0477305055160181,1266.5613632210038,15055.33889174049
0.5205205205205206,841.6947270224753,817.9035913830543,0.00709809190074277,0.0,0.163108803090982,0.23469850276155094,0.047730330406123116,1266.4645217987631,15087.831511931094
0.5405405405405406,844.6873686296218,822.3272976400696,0.007555051304551422,0.0,0.16325039433821636,0.23455678723375464,0.047730133877941304,1266.3656010083785,15120.411994394632
0.5605605605605606,847.5052249808449,826.4884849698337,0.00802118465394811,0.0,0.1633948122044841,0.2344122310493112,0.04772991515192868,1266.2646842578924,15153.0686113415
0.5805805805805806,850.1592197876405,830.4037300964139,0.008496123253301036,0.0,0.16354194175254638,0.23426494873684608,0.04772967358199965,1266.1618509193454,15185.790405900027
0.6006006006006006,852.6595457348305,834.088480675566,0.008979516770513177,0.0,0.16369167385816843,0.2341150490950389,0.04772940865341643,1266.0571764659524,15218.56714333169
0.6206206206206206,855.0157193551805,837.557142359835,0.009471032558383071,0.0,0.16384390499555593,0.23396263540436224,0.0477291199783222,1265.9507326164007,15251.389265358184
0.6406406406406406,857.2366310764413,840.8231579334533,0.009970354953088565,0.0,0.1639985370140689,0.23380780564637327,0.04772880728942232,1265.842587483077,15284.247847398035
0.6606606606606606,859.3305909471799,843.8990793798691,0.010477184562284502,0.0,0.1641554769105052,0.23365065272656305,0.04772847043228726,1265.732805721785,15317.134558523865
0.6806806806806807,861.3053709940348,846.7966343598927,0.010991241554523355,0.0,0.16431463784190212,0.23349126345608878,0.04772810935670761,1265.6214478156949,15350.04162394961
0.7007007007007007,863.1689739381771,849.5278224198421,0.011518245968784322,0.0,0.16447779440975804,0.2333278632597783,0.04772772410439996,1265.507276886461,15382.9618054523
0.7207207207207207,864.9278441624774,852.1023749647048,0.012055334007505396,0.0,0.16464405828910447,0.23316134053860074,0.04772731479563213,1265.390912267677,15415.888384987318
0.7407407407407407,866.5879790486639,854.529349376799,0.012599252161876287,0.0,0.16481242032582993,0.23299270457581867,0.047726881634718304,1265.2730576102392,15448.815057968071
0.7607607607607607,868.1553514846933,856.8177281445141,0.013149776147225962,0.0,0.1649828111930068,0.2328220248702861,0.0477264248936121,1265.1537615627487,15481.735943825252
0.7807807807807807,869.6355587637846,858.97592273773,0.013706692436759099,0.0,0.1651551649518593,0.23264936756927834,0.047725944902097854,1265.0330704792764,15514.645563508107
0.8008008008008007,871.0338481444428,861.011813130179,0.014269799058825677,0.0,0.1653294192916147,0.2324747952232855,0.04772544203932115,1264.9110282423085,15547.538814138206
0.8208208208208209,872.3551403077529,862.9327840135207,0.014838905015309253,0.0,0.16550551534206429,0.23229836696843997,0.04772491672586384,1264.7876763841648,15580.410945262502
0.8408408408408409,873.6040510583123,864.7457582326688,0.015413829723700107,0.0,0.16568339749400013,0.23212013870144294,0.047724369416411075,1264.663054203621,15613.25753660134
0.8608608608608609,874.784911421378,866.4572276913335,0.015994402482997886,0.0,0.16586301322759092,0.23194016324694078,0.04772380059303369,1264.537198877711,15646.074477195983
0.8808808808808809,875.9017862732319,868.0732819504976,0.016580461963314735,0.0,0.16604431294866048,0.2317584905173899,0.04772321075908988,1264.41014556875,15678.857945866395
0.9009009009009009,876.9584916280397,869.5996347194761,0.017171855718842624,0.0,0.16622724983275533,0.2315751676655185,0.0477226004337357,1264.2819275266352,15711.604392895986
0.9209209209209209,877.9586106923305,871.0416484188997,0.01776843972369276,0.0,0.1664117796768283,0.23139023922954233,0.047721970147023264,1264.1525761865257,15744.310522865308
0.9409409409409409,878.9055087874201,872.4043569769832,0.01837007793000096,0.0,0.16659786075832514,0.23120374727133217,0.047721320435557685,1264.022121262013,15776.973278561956
0.960960960960961,879.8023472307871,873.6924870049257,0.018976641847602085,0.0,0.16678545370142786,0.23101573150775592,0.047720651838678976,1263.8905908339154,15809.589825898238
0.980980980980981,880.6520962586006,874.9104774828088,0.019588010144529978,0.0,0.16697452135018978,0.2308262294354372,0.04771996489513202,1263.7580114348402,15842.157539773116
1.001001001001001,881.4575470641224,876.0624980750022,0.020204068267560653,0.0,0.1671650286482875,0.23063527644918225,0.047719260140186355,1263.6244081296513,15874.673990818716
1.021021021021021,882.2213230200177,877.1524661831334,0.02082470808199231,0.0,0.16735694252510394,0.230442905954335,0.04771853810316706,1263.4898045920133,15907.136932975669
1.0410410410410411,882.9458901465167,878.184062834703,0.02144982752985004,0.0,0.16755023178785738,0.23024914947332303,0.04771779930535946,1263.3542231771457,15939.54429184501
1.0610610610610611,883.6335668819315,879.1607474965842,0.02207933030570524,0.0,0.167744867019493,0.2300540367466536,0.04771704425825049,1263.2176849909608,15971.89415376778
1.0810810810810811,884.2865332071603,880.0857718947275,0.022713125549309376,0.0,0.16794082048205797,0.22985759582861773,0.04771627346207289,1263.0802099557295,16004.184755586644
1.1011011011011012,884.9068391714212,880.9621929142951,0.02335112755425737,0.0,0.1681380660252871,0.22965985317795412,0.047715487404619075,1262.941816872426,16036.414475046664
1.1211211211211212,885.4964128625033,881.7928846480626,0.023993255491915468,0.0,0.16833657900013607,0.2294608337437174,0.047714686560294726,1262.8025234799086,16068.58182179518
1.1411411411411412,886.05706786125,882.5805496551889,0.024639433149871423,0.0,0.168536336177006,0.2292605610465887,0.04771387138938413,1262.6623465110722,16100.685428943241
1.1611611611611612,886.590510216759,883.327729487271,0.02528958868418972,0.0,0.16873731566841482,0.22905905725585685,0.04771304233750143,1262.52130174612,16132.724045153458
1.1811811811811812,887.0983449758588,884.0368145339256,0.025943654384781238,0.0,0.1689394968558807,0.2288563432622911,0.04771219983520474,1262.3794040630867,16164.696527221371
1.2012012012012012,887.5820822977628,884.7100532359055,0.02660156645322371,0.0,0.16914286032079198,0.22865243874711585,0.047711344297751715,1262.2366674857499,16196.60183311946
1.2212212212212212,888.0431431823943,885.3495607099214,0.027263264792397372,0.0,0.16934738777905073,0.22844736224729026,0.04771047612497741,1262.0931052290505,16228.439015474934
1.2412412412412412,888.4828648386738,885.9573268258612,0.02792869280732761,0.0,0.16955306201928508,0.22824113121728487,0.04770959570127765,1261.948729742151,16260.207215454297
1.2612612612612613,888.9025057170657,886.5352237739298,0.02859779721665396,0.0,0.1697598668444371,0.22803376208753953,0.04770870339568193,1261.8035527492414,16291.905657029189
1.2812812812812813,889.3032502288484,887.0850131563582,0.02927052787417172,0.0,0.16996778701654244,0.22782527031977864,0.04770779956200274,1261.6575852882122,16323.53364159993
1.3013013013013013,889.6862131729104,887.6083526356927,0.029946837599918768,0.0,0.17017680820452658,0.22761567045934866,0.04770688453904874,1261.5108377472964,16355.090542954356
1.3213213213213213,890.0524438893397,888.1068021692874,0.030626682020305756,0.0,0.1703869169348538,0.22740497618473832,0.04770595865089116,1261.3633198997866,16386.57580254115
1.3413413413413413,890.4029301576795,888.5818298574242,0.031310019416812426,0.0,0.17059810054487112,0.22719320035443008,0.047705022207173896,1261.2150409369224,16417.9889250381
1.3613613613613613,890.7386018564405,889.034817430479,0.03199681058279686,0.0,0.17081034713870002,0.22698035505122707,0.047704075503458954,1261.0660094990446,16449.32947419695
1.3813813813813813,891.0603343992755,889.4670653987137,0.03268701868798712,0.0,0.17102364554553573,0.22676645162418976,0.047703118821599846,1260.9162337051005,16480.59706894767
1.4014014014014013,891.3689519621437,889.8797978865816,0.03338060915024694,0.0,0.17123798528022155,0.22655150072831126,0.047702152430136605,1260.7657211805922,16511.791379746013
1.4214214214214214,891.6652305147887,890.2741671718901,0.0340775495142278,0.0,0.17145335650597335,0.2263355123620527,0.0477011765847068,1260.6144790840408,16542.91212514926
1.4414414414414414,891.9499006689387,890.6512579487268,0.03477780933654012,0.0,0.171669749999136,0.22611849590285377,0.04770019152846778,1260.46251413205,16573.959068606047
1.4614614614614614,892.2236503547848,891.012091331748,0.0354813600770953,0.0,0.17188715711585983,0.2259004601407277,0.04769919749252595,1260.309832623038,16604.932015446917
1.4814814814814814,892.4871273365137,891.3576286182181,0.03618817499628849,0.0,0.17210556976059183,0.22568141331004365,0.047698194696369434,1260.1564404597061,16635.830810063195
1.5015015015015014,892.7409415769396,891.6887748230612,0.03689822905770934,0.0,0.17232498035628147,0.2254613631195946,0.04769718334830125,1260.0023431703178,16666.6553332625
1.5215215215215214,892.9856674606198,892.0063820011648,0.0376114988360846,0.0,0.17254538181620774,0.2252403167810429,0.047696163645870315,1259.8475459288377,16697.405499789947
1.5415415415415414,893.2218458842061,892.3112523702082,0.03832796243017202,0.0,0.17276676751733777,0.2250182810358315,0.04769513577629797,1259.692053574006,16728.081256004796
1.5615615615615615,893.4499862222178,892.6041412464158,0.039047599380339845,0.0,0.17298913127513332,0.22479526218064325,0.047694099916898436,1259.535870627388,16758.68257770283
1.5815815815815815,893.6705681758842,892.8857598048058,0.03977039059058021,0.0,0.17321246731972564,0.2245712660914869,0.047693056235491624,1259.3790013104676,16789.20946807557
1.6016016016016015,893.8840435122063,893.1567776747522,0.04049631825471855,0.0,0.173436770273384,0.22434629824648403,0.047692004890806876,1259.2214495608225,16819.661955797743
1.6216216216216217,894.0908376999316,893.4178253809699,0.04122536578659332,0.0,0.17366203512920683,0.22412036374742708,0.047690946032877025,1259.0632190474414,16850.0400932351
1.6416416416416417,894.291351448707,893.6694966393793,0.041957517753992604,0.0,0.17388825723096885,0.22389346734017468,0.04768987980342157,1258.9043131852177,16880.34395476512
1.6616616616616617,894.4859621572693,893.9123505166984,0.042692759816145696,0.0,0.17411543225406045,0.22366561343394717,0.047688806336218734,1258.7447351486717,16910.573635203626
1.6816816816816818,894.6750252761734,894.1469134620426,0.0434310786645783,0.0,0.17434355618746036,0.223436806119582,0.047687725757465785,1258.584487884938,16940.729248330736
1.7017017017017018,894.8588755902003,894.37368121829,0.04417246196715029,0.0,0.17457262531668488,0.22320704918680484,0.04768663818612728,1258.423574126057,16970.810925510028
1.7217217217217218,895.0378284252756,894.5931206204743,0.04491689831510498,0.0,0.17480263620766004,0.22297634614056996,0.04768554373427123,1258.2619964006108,17000.818814395087
1.7417417417417418,895.2121807844188,894.8056712880144,0.0456643771729674,0.0,0.17503358569146685,0.22274470021651946,0.04768444250739292,1258.0997570447335,17030.75307771806
1.7617617617617618,895.3822124169714,895.0117472171597,0.046414888831138326,0.0,0.1752654708499117,0.22251211439561025,0.0476833346047265,1257.9368582125344,17060.61389215519
1.7817817817817818,895.5481868250841,895.2117382796381,0.04716842436103896,0.0,0.17549828900187753,0.2222785914179523,0.04768222011954437,1257.7733018859624,17090.40144726443
1.8018018018018018,895.7103522112013,895.4060116331145,0.047924975572668435,0.0,0.17573203769041187,0.22204413379590185,0.047681099139444495,1257.60908988414,17120.115944490823
1.8218218218218218,895.8689423700496,895.5949130487281,0.048684534974444436,0.0,0.17596671467051353,0.22180874382644944,0.04767997174662587,1257.4442238722,17149.75759623529
1.8418418418418419,896.0241775284285,895.7787681606426,0.0494470957352038,0.0,0.17620231789757812,0.2215724236029408,0.04767883801815233,1257.2787053696456,17179.326624983063
1.8618618618618619,896.1762651358946,895.9578836422575,0.05021265164824635,0.0,0.17643884551646805,0.22133517502616679,0.04767769802620495,1257.1125357582666,17208.823262487946
1.8818818818818819,896.3254006092562,896.1325483134347,0.050981197097311685,0.0,0.1766762958511714,0.22109699981485692,0.04767655183832343,1256.9457162896272,17238.24774900894
1.901901901901902,896.4717680336021,896.3030341828212,0.051752727024384805,0.0,0.17691466739501938,0.22085789951560791,0.04767539951763648,1256.7782480921546,17267.600332596066
1.921921921921922,896.6155408224317,896.469597429107,0.05252723689923197,0.0,0.1771539588014305,0.22061787551227852,0.04767424112308203,1256.610132177848,17296.881268422316
1.941941941941942,896.7568823393088,896.6324793248316,0.053304722690573,0.0,0.17739416887515388,0.22037692903487904,0.047673076709616985,1256.4413694486268,17326.09081815875
1.961961961961962,896.895946483308,896.7919071061243,0.05408518083880184,0.0,0.17763529656398389,0.22013506116798323,0.047671906328417474,1256.2719607023403,17355.229249390246
1.981981981981982,897.0328782403915,896.9480947915667,0.05486860823017149,0.0,0.1778773409509206,0.21989227285868834,0.04767073002706942,1256.1019066384536,17384.296835069235
2.002002002002002,897.1678142027307,897.1012439531661,0.0556550021723643,0.0,0.17812030124675216,0.21964856492414772,0.04766954784975015,1255.931207863431,17413.29385300514
2.022022022022022,897.300883057866,897.2515444422553,0.056444360371372314,0.0,0.1783641767830357,0.2194039380586993,0.047668359837401225,1255.759864895829,17442.220585387255
2.042042042042042,897.4322060494897,897.3991750729613,0.057236680909617255,0.0,0.17860896700545506,0.2191583928406114,0.04766716602789276,1255.5878781711197,17471.077318339016
2.062062062062062,897.5618974115368,897.544304265725,0.05803196222524231,0.0,0.1788546714675354,0.21891192973846757,0.04766596645617986,1255.4152480462526,17499.86434150172
2.0820820820820822,897.6900647771696,897.6870906532121,0.05883020309251273,0.0,0.17910128982469434,0.21866454911720892,0.04766476115445116,1255.2419748039756,17528.58194764584
2.1021021021021022,897.8168095641552,897.8276836508029,0.05963140260326476,0.0,0.1793488218286121,0.21841625124385364,0.04766355015227004,1255.0680586569242,17557.230432308188
2.1221221221221223,897.9422273380525,897.9662239937288,0.060435560149345806,0.0,0.17959726732190295,0.21816703629291032,0.047662333476708806,1254.8934997514912,17585.81009345347
2.1421421421421423,898.0664081545501,898.1028442427895,0.06124267540599233,0.0,0.17984662623307135,0.21791690435150227,0.04766111115247596,1254.7182981714923,17614.321231158512
2.1621621621621623,898.1894368822235,898.2376692604707,0.06205274831609385,0.0,0.18009689857173689,0.21766585542421885,0.04765988320203718,1254.5424539416338,17642.764147317914
2.1821821821821823,898.311393506919,898.3708166591699,0.06286577907529489,0.0,0.18034808442411482,0.21741388943770815,0.04765864964573001,1254.3659670307986,17671.139145369747
2.2022022022022023,898.4323534189143,898.5023972231338,0.0636817681178891,0.0,0.18060018394873584,0.21716100624502532,0.047657410501872756,1254.1888373551553,17699.446530040066
2.2222222222222223,898.5523876839491,898.6325153056082,0.06450071610346171,0.0,0.18085319737239394,0.21690720562975047,0.047656165786867724,1254.0110647811034,17727.686607105046
2.2422422422422423,898.6715632991798,898.7612692026073,0.06532262390423946,0.0,0.18110712498630865,0.21665248730988826,0.047654915515299164,1253.8326491280627,17755.85968316976
2.2622622622622623,898.7899434350685,898.8887515046171,0.06614749259310848,0.0,0.1813619671424901,0.21639685094156166,0.04765365970002616,1253.6535901711156,17783.9660654625
2.2822822822822824,898.9075876641878,899.0150494274618,0.06697532343226317,0.0,0.1816177242502954,0.21614029612251087,0.04765239835227063,1253.4738876435101,17812.00606164368
2.3023023023023024,899.0245521778934,899.1402451234754,0.0678061178624505,0.0,0.18187439677316614,0.2158828223954093,0.047651131481700866,1253.2935412390302,17839.97997962862
2.3223223223223224,899.1408899918072,899.2644159740394,0.06863987749277618,0.0,0.18213198522553575,0.2156244292510056,0.047649859096510594,1253.1125506142453,17867.88812742317
2.3423423423423424,899.2566511410402,899.3876348644649,0.06947660409104049,0.0,0.18239049016989792,0.21536511613110318,0.047648581203494085,1252.93091539064,17895.73081297159
2.3623623623623624,899.3718828660891,899.5099704421228,0.07031629957457272,0.0,0.18264991221402616,0.21510488243138529,0.047647297808117224,1252.7486351566351,17923.508344015958
2.3823823823823824,899.4866297903567,899.631487358639,0.07115896600153525,0.0,0.18291025200833583,0.21484372750409575,0.04764600891458494,1252.565709469507,17951.221027966483
2.4024024024024024,899.6009340902722,899.7522464968953,0.07200460556266831,0.0,0.18317151024337966,0.21458165066058407,0.047644714525905255,1252.3821378572054,17978.869171782084
2.4224224224224224,899.7148356590334,899.8723051834921,0.07285322057344834,0.0,0.18343368764746895,0.2143186511737225,0.04764341464394993,1252.1979198200836,18006.453081860862
2.4424424424424425,899.8283722650511,899.9917173872433,0.0737048134666327,0.0,0.1836967849844116,0.2140547282802044,0.04764210926951214,1252.0130548325412,18033.973063939902
2.4624624624624625,899.9415797062645,900.11053390418,0.07455938678516537,0.0,0.18396080305135984,0.2137898811827311,0.04764079840236119,1251.82754234459,18061.429423004076
2.4824824824824825,900.0544919616024,900.2288025294465,0.07541694317541693,0.0,0.1842257426767591,0.21352410905209632,0.04763948204129466,1251.6413817833438,18088.822463203524
2.5025025025025025,900.1671413410052,900.3465682163624,0.07627748538073353,0.0,0.18449160471839077,0.21325741102917448,0.047638160184188,1251.4545725544397,18116.152487779545
2.5225225225225225,900.279558635601,900.4638732228075,0.07714101623526906,0.0,0.1847583900615004,0.21298978622682235,0.047636832828041806,1251.2671140433977,18143.419798998773
2.5425425425425425,900.3917732698442,900.5807572449614,0.07800753865807361,0.0,0.18502609961700417,0.2127212337317017,0.0476354999690272,1251.079005616926,18170.6246980955
2.5625625625625625,900.5038134576963,900.6972575382848,0.07887705564741143,0.0,0.18529473431976412,0.21245175260603086,0.04763416160252912,1250.8902466241707,18197.7674852222
2.5825825825825826,900.6157063652676,900.8134090254648,0.07974957027527958,0.0,0.185564295126925,0.21218134188927484,0.04763281772318816,1250.7008363979269,18224.848459408393
2.6026026026026026,900.7274782827286,900.9292443908771,0.08062508568209675,0.0,0.18583478301630188,0.21191000059978293,0.04763146832494093,1250.5107742558064,18251.867918528
2.6226226226226226,900.8391548088064,901.0447941609074,0.08150360507153014,0.0,0.1861061989848104,0.21163772773638365,0.04763011340105933,1250.3200595013807,18278.826159275697
2.6426426426426426,900.9507610517604,901.1600867692702,0.08238513170542433,0.0,0.1863785440469269,0.21136452227994829,0.04762875294418894,1250.128691425296,18305.723477152704
2.6626626626626626,901.062321851457,901.2751486062161,0.08326966889879327,0.0,0.1866518192331684,0.21109038319493542,0.04762738694638692,1249.9366693063794,18332.56016646289
2.6826826826826826,901.1738620279996,901.3900040502851,0.08415722001483185,0.0,0.18692602558857832,0.2108153094309292,0.04762601539915971,1249.7439924127364,18359.33652031996
2.7027027027027026,901.2854066633962,901.5046754810186,0.08504778845989856,0.0,0.18720116417120272,0.21053929992418627,0.04762463829350094,1249.5506600028586,18386.052830667217
2.7227227227227226,901.3969814239293,901.6191832708392,0.08594137767841457,0.0,0.187477236050542,0.21026235359920925,0.04762325561993004,1249.3566713267448,18412.709388311177
2.7427427427427427,901.5086129322951,901.7335457541571,0.08683799114761868,0.0,0.1877542423059582,0.2099844693703643,0.04762186736853188,1249.1620256270608,18439.306482971195
2.7627627627627627,901.6203292001876,901.8477791717553,0.08773763237211026,0.0,0.18803218402501784,0.20970564614356435,0.04762047352899833,1248.9667221403395,18465.844403347266
2.7827827827827827,901.7321601338535,901.961897588718,0.08864030487810538,0.0,0.18831106230174832,0.20942588281804067,0.04761907409067183,1248.7707600982478,18492.323437208936
2.8028028028028027,901.8441381271883,902.0759127847464,0.08954601220732633,0.0,0.18859087823478204,0.20914517828822785,0.047617669042592216,1248.5741387289343,18518.743871508737
2.8228228228228227,901.9562987592033,902.189834116867,0.09045475791043966,0.0,0.18887163292536432,0.20886353144578806,0.04761625837354691,1248.3768572584734,18545.105992524263
2.8428428428428427,902.0686816150435,902.303668356581,0.09136654553996006,0.0,0.18915332747519858,0.20858094118180034,0.04761484207212561,1248.1789149124334,18571.410086033717
2.8628628628628627,902.1813312520601,902.4174195068464,0.09228137864254396,0.0,0.18943596298410645,0.20829740638913802,0.0476134201267798,1247.9803109175728,18597.656437530717
2.8828828828828827,902.2942983345237,902.531088609517,0.09319926075061832,0.0,0.18971954054748616,0.20801292596505144,0.047611992525887645,1247.781044503687,18623.84533248503
2.9029029029029028,902.4076409620117,902.6446735617426,0.09412019537332736,0.0,0.19000406125356348,0.20772749881396163,0.04761055925782426,1247.5811149056049,18649.977056656928
2.9229229229229228,902.5214262168253,902.7581689713303,0.09504418598684825,0.0,0.19028952618045128,0.2074411238504481,0.0476091203110371,1247.3805213653236,18676.05189647388
2.942942942942943,902.6357319541678,902.8715660973527,0.09597123602423352,0.0,0.19057593639306494,0.2071538000023836,0.04760767567412487,1247.179263134249,18702.07013947936
2.962962962962963,902.7506488542359,902.9848529445817,0.09690134886510203,0.0,0.1908632929399916,0.20686552621411536,0.04760622533591744,1246.977339475469,18728.0320748643
2.982982982982983,902.8662827464126,903.0980146097653,0.09783452782574302,0.0,0.19115159685048405,0.20657630144951938,0.04760476928555201,1246.7747496659342,18753.93799409221
3.003003003003003,902.9827572007088,903.2110340148316,0.09877077615053839,0.0,0.19144084913185377,0.20628612469464833,0.047603307512537746,1246.571492998349,18779.788191629174
3.023023023023023,903.1002163584736,903.3238932059827,0.09971009700607575,0.0,0.19173105076767955,0.20599499495954923,0.047601840006797735,1246.3675687824675,18805.58296578854
3.043043043043043,903.2188279412435,903.4365754448983,0.10065249347993174,0.0,0.1920222027174311,0.20570291127864168,0.04760036675867151,1246.1629763453582,18831.322619698647
3.063063063063063,903.3387863318407,903.5490683614025,0.10159796858685972,0.0,0.19231430591833815,0.2054098727088111,0.04759888775885537,1245.9577150300322,18857.0074623973
3.083083083083083,903.460315565233,903.6613684625942,0.10254652528598744,0.0,0.1926073612905965,0.20511587832410608,0.04759740299825047,1245.7517841916426,18882.637810051277
3.103103103103103,903.5836720002728,903.7734872810813,0.10349816651354514,0.0,0.19290136974728392,0.20482092720564485,0.04759591246768078,1245.5451831902512,18908.21398728972
3.123123123123123,903.7091463730986,903.8854593676325,0.10445289523645018,0.0,0.19319633221059884,0.20452501842508702,0.04759441615743639,1245.3379113789913,18933.736328629097
3.143143143143143,903.8370648695641,903.9973521618081,0.10541071453253599,0.0,0.19349224963617884,0.20422815101988534,0.04759291405659357,1245.1299680863451,18959.205179952343
3.163163163163163,903.9677888139161,904.1092774858288,0.10637162770300487,0.0,0.19378912304718957,0.2039303239585955,0.04759140615206435,1244.921352591307,18984.620899988415
3.183183183183183,904.1017125747554,904.2214040028098,0.1073356384214401,0.0,0.194086953579499,0.2036315360949061,0.0475898924273385,1244.7120640904668,19009.983861721015
3.203203203203203,904.2392593580406,904.3339695024653,0.10830275092111026,0.0,0.1943857425384618,0.20333178610985383,0.04758837286090176,1244.5021016566436,19035.2944536399
3.2232232232232234,904.3808747049316,904.4472914213383,0.10927297021821655,0.0,0.1946854914666004,0.20303107244294777,0.04758684742434762,1244.291464189571,19060.55308073787
3.2432432432432434,904.527017738669,904.5617737143066,0.11024630236340148,0.0,0.1949862022198515,0.20272939321457323,0.047585316080243106,1244.0801503603398,19085.760165154865
3.2632632632632634,904.6781504861129,904.677908226013,0.1112227547079582,0.0,0.1952878770482625,0.20242674614385808,0.04758377877985742,1243.8681585525865,19110.91614638022
3.2832832832832834,904.8347258891214,904.7962691715928,0.11220233616588272,0.0,0.19559051867541605,0.20212312846782102,0.04758223546090511,1243.6554868045891,19136.0214809468
3.3033033033033035,904.9971753567548,904.9175002157418,0.11318505744951732,0.0,0.19589413036982872,0.20181853686866738,0.04758068604548248,1243.4421327571777,19161.076641584255
3.3233233233233235,905.165896832004,905.0422947787274,0.11417093125614662,0.0,0.19619871600145278,0.20151296741621894,0.047579130438378775,1243.2280936124575,19186.082115840432
3.3433433433433435,905.3412443201178,905.1713713217434,0.11515997238598277,0.0,0.19650428007734005,0.201206415531517,0.04757756852591687,1243.0133661076616,19211.038404222483
3.3633633633633635,905.5235196508324,905.3054461748186,0.11615219777809062,0.0,0.19681082775238093,0.20089887597574985,0.04757600017542683,1242.797946507091,19235.946017946655
3.3833833833833835,905.7129669630654,905.4452067636156,0.11714762645872394,0.0,0.19711836481343234,0.2005903428662157,0.04757442523538873,1242.5818306133674,19260.805476412443
3.4034034034034035,905.9097700714941,905.5912878287884,0.11814627940462845,0.0,0.197426897637598,0.2002808097185354,0.04757284353621301,1242.3650137974191,19285.61730452889
3.4234234234234235,906.1140525665072,905.7442525396702,0.119148179330566,0.0,0.19773643312745653,0.19997026951226482,0.04757125489156882,1242.1474910451577,19310.382030018867
3.4434434434434436,906.3258802626787,905.9045795060806,0.12015335041459359,0.0,0.19804697862732687,0.1996587147757355,0.04756965910013266,1241.9292570178416,19335.100180813188
3.4634634634634636,906.5452654704188,906.0726558164081,0.12116181797613279,0.0,0.19835854182511362,0.19934613768548973,0.0475680559476132,1241.7103061228047,19359.772282624202
3.4834834834834836,906.772172519381,906.2487755407221,0.12217360812084317,0.0,0.19867113064396189,0.1990325301759928,0.04756644520891169,1241.4906325914324,19384.398856763277
3.5035035035035036,907.0065239915189,906.4331427072742,0.12318874736337819,0.0,0.1989847531270542,0.19871788405620955,0.04756482665029436,1241.2702305619312,19408.980418240724
3.5235235235235236,907.2482071997854,906.6258775825864,0.12420726223497973,0.0,0.19929941731762574,0.19840219113090968,0.0475632000314792,1241.0490941653272,19433.5174741646
3.5435435435435436,907.4970805494947,906.8270251042023,0.12522917887818197,0.0,0.19961513113484347,0.1980854433260094,0.04756156510756705,1240.8272176141672,19458.010522436587
3.5635635635635636,907.7529795231602,907.0365644593113,0.1262545226260781,0.0,0.19993190224472301,0.19776763281875068,0.04755992163077311,1240.6045952944496,19482.460050729587
3.5835835835835836,908.0157221230846,907.2544190061041,0.1272833175588608,0.0,0.20024973792380255,0.1974487521749817,0.047558269351937174,1240.3812218623457,19506.866535723173
3.6036036036036037,908.2851136826055,907.4804659489133,0.12831558602569357,0.0,0.2005686449118658,0.1971287944972471,0.04755660802180823,1240.1570923482966,19531.23044256785
3.6236236236236237,908.5609510148721,907.714545372675,0.12935134811527105,0.0,0.2008886292485563,0.1968077535888479,0.04755493739211117,1239.9322022720846,19555.552224547075
3.6436436436436437,908.8430259086055,907.9564684024319,0.13039062105345245,0.0,0.20120969608719005,0.19648562414057633,0.04755325721641144,1239.7065477735628,19579.83232290609
3.6636636636636637,909.1311280061618,908.2060243757505,0.13143341850079676,0.0,0.2015318494773521,0.196162401948551,0.0475515672507983,1239.4801257649312,19604.071166818147
3.6836836836836837,909.4250471135246,908.4629870027791,0.13247974971634277,0.0,0.2018550921058528,0.19583808417359214,0.047549867254409,1239.2529341118502,19628.269173460973
3.7037037037037037,909.7245749975648,908.7271195458007,0.13352961854617598,0.0,0.20217942498319913,0.19551266965499617,0.047548156989816834,1239.0249718523642,19652.42674817907
3.7237237237237237,910.0295067255988,908.9981790842164,0.13458302218574314,0.0,0.2025048470597605,0.19518615929454272,0.04754643622330492,1238.7962394646893,19676.5442847101
3.7437437437437437,910.3396415978468,909.2759199478443,0.13563994965305526,0.0,0.20283135475214192,0.19485855653023518,0.0475447047250462,1238.5667391974664,19700.622165456294
3.7637637637637638,910.6547837163084,909.5600964063754,0.1367003798952977,0.0,0.20315894135573678,0.19452986792381466,0.04754296226920825,1238.3364754792476,19724.660761783984
3.7837837837837838,910.9747422248141,909.8504646997196,0.13776427943335337,0.0,0.20348759631383984,0.1942001038916759,0.04754120863399966,1238.1054554278664,19748.660434336383
3.803803803803804,911.2993312451862,910.1467844857416,0.13883159942671416,0.0,0.20381730430686482,0.19386927961565187,0.04753944360167302,1237.873689485125,19772.62153334627
3.823823823823824,911.6283695239081,910.4488197705302,0.1399022720145978,0.0,0.20414804411693527,0.19353741617840575,0.0475376669584982,1237.6411922079762,19796.544398935985
3.843843843843844,911.9616797926466,910.7563393732311,0.14097620575730543,0.0,0.20447978721325513,0.1932045419780325,0.047535878494718214,1237.4079832542611,19820.42936139305
3.863863863863864,912.2990878344341,911.0691169634633,0.14205327996473102,0.0,0.20481249599214377,0.19287069448799232,0.04753407800449928,1237.1740886090809,19844.27674140966
3.883883883883884,912.6404212354371,911.3869306949757,0.14313333765682507,0.0,0.20514612159255274,0.19253592244156562,0.04753226528588613,1236.9395421070071,19868.086850273725
3.903903903903904,912.9855077900972,911.7095624448611,0.14421617685512708,0.0,0.2054806011937022,0.19220028853419852,0.04753044014077374,1236.704387315181,19891.859989998502
3.923923923923924,913.3341735155054,912.0367966537027,0.14530153985838418,0.0,0.20581585468717167,0.19186387275141184,0.047528602374906796,1236.4686798523546,19915.596453376278
3.943943943943944,913.6862402198823,912.3684187490189,0.1463891001148357,0.0,0.2061517806032287,0.19152677644249727,0.04752675179791892,1236.2324902276503,19939.296523939734
3.963963963963964,914.0415225615214,912.7042131231769,0.14747844627946635,0.0,0.20648825116364566,0.19118912726775916,0.047524888223425106,1235.9959072880697,19962.960475812477
3.983983983983984,914.3998245309307,913.0439606290544,0.14856906305350778,0.0,0.20682510633603923,0.190851085144276,0.0475230114691819,1235.7590423618494,19986.588573427565
4.004004004004004,914.7609352940724,913.3874355545653,0.14966030847193257,0.0,0.20716214678601003,0.19051284929391554,0.04752112135733156,1235.5220341699453,20010.181071090763
4.024024024024024,915.1246243543411,913.7344020443192,0.15075138747071093,0.0,0.20749912567487838,0.1901746664458178,0.04751921771474829,1235.285054542041,20033.738212363023
4.044044044044044,915.4906360331428,914.0846099583214,0.15184132188071517,0.0,0.2078357393485917,0.18983684014778354,0.0475173003735056,1235.0483149053198,20057.26022923639
4.064064064064064,915.8586833437421,914.4377902003874,0.15292891752281332,0.0,0.20817161712711357,0.18949974097726974,0.047515369171484564,1234.8120734001595,20080.74734107911
4.084084084084084,916.2284414514272,914.7936496204717,0.15401272988553744,0.0,0.20850631065397282,0.189163817192326,0.0475134239531412,1234.5766423024102,20104.199753331446
4.104104104104104,916.5995410840462,915.1518657023072,0.15509103100104427,0.0,0.20883928361764362,0.18882960501080967,0.04751146457044734,1234.3423951866555,20127.617655945276
4.124124124124124,916.9715624817134,915.5120813933308,0.15616178158607338,0.0,0.2091699031066816,0.18849773725595867,0.04750949088401172,1234.1097729510664,20151.00122157967
4.1441441441441444,917.3440307369492,915.8739006105483,0.15722261414959063,0.0,0.20949743436789825,0.18816894859903635,0.04750750276437431,1233.8792874709152,20174.35060359408
4.1641641641641645,917.7164136319064,916.2368851391548,0.15827083425850588,0.0,0.20982104119913086,0.1878440751674733,0.047505500093448505,1233.6515213256678,20197.665933919743
4.1841841841841845,918.0881232451785,916.600553781777,0.15930344791979886,0.0,0.21013979444617545,0.18752404604890827,0.047503482766060055,1233.4271218787173,20220.947320937878
4.2042042042042045,918.4585225600767,916.9643846428659,0.1603172222958102,0.0,0.2104526908433527,0.18720986445160687,0.047501450691503376,1233.2067881491637,20244.194847542836
4.2242242242242245,918.8269379364443,917.3278212638542,0.16130878394131037,0.0,0.2107586834975369,0.18690257722135978,0.04749940379500744,1232.9912495698354,20267.40856960952
4.2442442442442445,919.1926775404206,917.6902829047932,0.1622747530933923,0.0,0.21105672355989646,0.18660323317053204,0.047497342018983604,1232.7812369491264,20290.588515101972
4.2642642642642645,919.5550547239421,918.0511786150797,0.1632119048704346,0.0,0.21134581024802257,0.18631283305650193,0.047495265323923,1232.577447613827,20313.734684039046
4.2842842842842845,919.9134141511212,918.4099239757204,0.16411734039355197,0.0,0.21162504394738263,0.18603227648048207,0.047493173688829875,1232.3805084060564,20336.847049465076
4.3043043043043046,920.2671575656581,918.765958749181,0.16498864555589565,0.0,0.2118936754800375,0.18576231261873696,0.04749106711111805,1232.1909413509343,20359.925559463387
4.324324324324325,920.615765856091,919.1187633756706,0.1658240149037674,0.0,0.2121511445473743,0.1855035017794369,0.04748894560595715,1232.0091368681706,20382.970140117795
4.344344344344345,920.9588146695958,919.4678724401423,0.16662232369164018,0.0,0.21239710209069895,0.185256193041335,0.047486809205117865,1231.8353381902516,20405.980699204174
4.364364364364365,921.2959820903254,919.8128838533949,0.16738314111171612,0.0,0.2126314143975378,0.1850205201464838,0.04748465795541884,1231.66963850083,20428.9571303111
4.384384384384385,921.627048411537,920.1534633299331,0.1681066887080054,0.0,0.21285415019782714,0.18479641440289563,0.04748249191690866,1231.5119899262659,20451.899317063737
4.404404404404405,921.9518893145038,920.4893445342952,0.1687937566431058,0.0,0.21306555468095642,0.18458363066626984,0.04748031116092192,1231.3622216410306,20474.807137157804
4.424424424424425,922.2704645071152,920.8203258042354,0.16944559475590545,0.0,0.21326601568973982,0.18438178114479054,0.0474781157681328,1231.2200634243236,20497.680465983623
4.444444444444445,922.5828040138791,921.1462645752604,0.17006379513853773,0.0,0.213456027282325,0.18419037183604398,0.04747590582670001,1231.0851710506097,20520.519179708837
4.464464464464465,922.8889939947835,921.467070577649,0.17065017962052456,0.0,0.21363615481653608,0.18400883744159913,0.04747368143056445,1230.9571506191162,20543.32315777245
4.484484484484485,923.189163432358,921.7826986638651,0.17120670089607853,0.0,0.21380700426761298,0.18383657204830797,0.04747144267793136,1230.8355799332307,20566.092284806673
4.504504504504505,923.4834724651324,922.0931418590277,0.17173536155595467,0.0,0.21396919710179985,0.18367295425387933,0.04746918966994566,1230.7200260083268,20588.826452045032
4.524524524524525,923.7721026834577,922.3984249834615,0.17223815181931942,0.0,0.21412335095270776,0.1835173664897962,0.04746692250955405,1230.6100585360007,20611.52555829506
4.544544544544545,924.0552493839303,922.6985990086868,0.17271700453062336,0.0,0.21427006565521492,0.18336920898680395,0.04746464130053846,1230.5052596150163,20634.189510558634
4.564564564564565,924.3331155933251,922.993736182185,0.1731737648428303,0.0,0.2144099138367662,0.18322790918309614,0.0474623461467018,1230.4052303065555,20656.81822437774
4.584584584584585,924.6059075902892,923.2839258823068,0.17361017165206574,0.0,0.21454343515535437,0.1830929274859012,0.047460037151186095,1230.3095946484186,20679.41162397295
4.604604604604605,924.8738316373672,923.569271128228,0.17402784797439858,0.0,0.21467113331244433,0.1829637602581989,0.04745771441590401,1230.2180017356343,20701.969642229964
4.624624624624625,925.1370916580216,923.849885657626,0.174428297826693,0.0,0.21479347508428578,0.18283994078710933,0.047455378041067045,1230.1301263946855,20724.492220578093
4.644644644644645,925.3958876319024,924.1258914860123,0.1748129076263633,0.0,0.21491089075559194,0.18272103884996715,0.04745302812479582,1230.0456688806144,20746.97930879401
4.664664664664665,925.6504145245483,924.3974168698467,0.17518295057026034,0.0,0.21502377547777027,0.18260665935588832,0.047450664762799695,1229.9643539299532,20769.43086475599
4.684684684684685,925.9008616076496,924.664594606102,0.17553959284192686,0.0,0.21513249119460223,0.1824964404199252,0.04744828804811564,1229.8859294183267,20791.84685416707
4.704704704704705,926.1474120603328,924.9275606117288,0.17588390081613298,0.0,0.21523736887746686,0.18239005112770906,0.04744589807089715,1229.810164802426,20814.22725026031
4.724724724724725,926.3902427696656,925.1864527362114,0.17621684867878287,0.0,0.21533871088952672,0.18228718917115805,0.04744349491824609,1229.7368494721875,20836.572033495668
4.744744744744745,926.6295242703552,925.4414097688277,0.1765393260693586,0.0,0.21543679335696675,0.18218757847715472,0.047441078674081115,1229.6657910981198,20858.881191255034
4.764764764764765,926.8654207800984,925.6925706091769,0.17685214549131467,0.0,0.2155318684682772,0.18209096690819987,0.047438649419037436,1229.5968140288232,20881.15471753989
4.784784784784785,927.0980902993509,925.9400735751885,0.17715604933495535,0.0,0.2156241666533304,0.18199712408328922,0.047436207230393566,1229.5297577723247,20903.392612674714
4.804804804804805,927.3276847534013,926.1840558274363,0.17745171642738466,0.0,0.21571389861574142,0.18190583934552088,0.04743375218202097,1229.4644755796874,20925.59488301797
4.824824824824825,927.554350161133,926.424652892197,0.17773976807105174,0.0,0.21580125720656737,0.18181691988837678,0.047431284344353765,1229.4008331392188,20947.761540682004
4.844844844844845,927.7782268216187,926.6619982673456,0.17802077358475213,0.0,0.21588641913766093,0.18173018904235982,0.047428803790353684,1229.3387073782774,20969.892603262295
4.864864864864865,927.9994556519998,926.8962228410504,0.17829529859477125,0.0,0.2159695464099301,0.18164548484706364,0.04742632415431382,1229.2779760210826,20991.988093652704
4.884884884884885,928.2181739164587,927.1274564863425,0.17856386951012773,0.0,0.21605078733454802,0.18156265903105023,0.0474238605892906,1229.2185252715283,21014.048040063528
4.904904904904905,928.4345071592489,927.3558273126697,0.1788269240930942,0.0,0.21613027827515574,0.1814815752685958,0.047421412682097146,1229.1602605009055,21036.072475568762
4.924924924924925,928.6485759176302,927.5814602627431,0.17908486605418739,0.0,0.21620814494009605,0.18140210788708475,0.04741898010236981,1229.1030944419551,21058.061437785316
4.944944944944945,928.8604958916928,927.8044770118081,0.1793380681012416,0.0,0.21628450339394806,0.1813241408555069,0.047416562537241184,1229.046946529567,21080.014968648626
4.964964964964965,929.0703781353773,928.0249958929967,0.17958687486748726,0.0,0.21635946096666953,0.1812475668753492,0.04741415969087335,1228.9917422676401,21101.933114197276
4.984984984984985,929.2783292418255,928.2431318503708,0.1798316055393247,0.0,0.2164331170695647,0.18117228656466397,0.047411771283990795,1228.9374126608836,21123.8159243669
5.005005005005005,929.4844515227938,928.4589964156266,0.18007255621433876,0.0,0.216505563927553,0.18109820772583982,0.047409397053415105,1228.8838937049554,21145.663452792945
5.025025025025025,929.688843182021,928.6726977049622,0.1803100020176481,0.0,0.21657688723645166,0.1810252446883599,0.04740703675160326,1228.8311259288587,21167.475756622138
5.045045045045045,929.8915984825691,928.8843404330736,0.18054419900220378,0.0,0.2166471667532179,0.18095331771860254,0.047404690146191,1228.7790539840557,21189.252896332117
5.065065065065065,930.0928079082274,929.0940259416399,0.18077538585621558,0.0,0.21671647682634038,0.18088235248949355,0.04740235701954259,1228.727626275296,21210.994935559083
5.085085085085085,930.2925583190672,929.3018522399774,0.1810037854382494,0.0,0.21678488687275188,0.18081227960363808,0.047400037168307985,1228.6767946287023,21232.7019409331
5.105105105105105,930.4909331013229,929.5079140558668,0.1812296061587658,0.0,0.21685246180708617,0.18074303416410908,0.047397730402988635,1228.6265139930672,21254.373981920697
5.125125125125125,930.6880123117513,929.7123028947981,0.18145304322462197,0.0,0.21691926242840384,0.18067455538776642,0.047395436547512264,1228.5767421707817,21276.011130674557
5.145145145145145,930.8838728166223,929.9151071061024,0.18167427976122508,0.0,0.216985345768944,0.18060678625655086,0.047393155438817586,1228.5274395752192,21297.61346188994
5.165165165165165,931.078588425518,930.1164119546451,0.1818934878255248,0.0,0.2170507654089923,0.180539673202661,0.04739088692644934,1228.4785690117264,21319.181052667624
5.185185185185185,931.2722300200995,930.3162996969199,0.18211082932148642,0.0,0.2171155717614769,0.18047316582400202,0.04738863087216402,1228.4300954796988,21340.713982383037
5.205205205205205,931.4648656779902,930.5148496605327,0.182326456828288,0.0,0.2171798123294703,0.1804072166267279,0.047386387149546697,1228.3819859935304,21362.212332561427
5.225225225225225,931.6565607919487,930.7121383262084,0.1825405143505932,0.0,0.21724353193949839,0.18034178079197638,0.047384155643638966,1228.3342094204124,21383.67618675866
5.245245245245245,931.8473781844625,930.9082394115562,0.18275313799886495,0.0,0.21730677295312723,0.18027681596432443,0.04738193625057847,1228.28673633326,21405.105630447622
5.265265265265265,932.037378217931,931.1032239559481,0.18296445660713836,0.0,0.21736957545912972,0.180212282059664,0.04737972887724967,1228.2395388771615,21426.500750909756
5.285285285285285,932.2266189005513,931.297160405934,0.1831745922944886,0.0,0.21743197744816692,0.18014814109056157,0.04737753344094629,1228.1925906480008,21447.861637131762
5.305305305305305,932.4151559880728,931.4901147007199,0.18338366097607584,0.0,0.21749401497180848,0.18008435700727773,0.047375349869045055,1228.145866581985,21469.188379707033
5.325325325325325,932.6030430815349,931.682150357292,0.18359177282875472,0.0,0.2175557222874404,0.18002089555289869,0.04737317809869085,1228.099342854995,21490.481070741767
5.345345345345345,932.7903317211163,931.8733285548225,0.1837990327157087,0.0,0.21761713199044383,0.1799577241311953,0.047371018076493174,1228.0529967907958,21511.739803765468
5.365365365365365,932.9770714762501,932.0637082180845,0.18400554057438215,0.0,0.21767827513497084,0.1798948116858843,0.04736886975823362,1228.0068067771801,21532.964673645714
5.385385385385385,933.1633100320993,932.2533460995996,0.1842113917710488,0.0,0.21773918134435344,0.17983212859025532,0.04736673310858433,1227.9607521893306,21554.155776506956
5.405405405405405,933.3490932725174,932.4422968603202,0.18441667742529017,0.0,0.21779987891216157,0.17976964654614713,0.047364608100837154,1227.9148133196832,21575.31320965318
5.425425425425425,933.5344653596322,932.6306131486759,0.18462148470736803,0.0,0.21786039489483644,0.17970733849134837,0.04736249471664334,1227.8689713136516,21596.43707149435
5.445445445445445,933.7194688101597,932.818345677849,0.18482589711099476,0.0,0.21792075519667636,0.179645178514644,0.047360392945763455,1227.823208110674,21617.527461476275
5.465465465465465,933.9041445685344,933.005543301146,0.1850299947036387,0.0,0.21798098464783816,0.1795831417778452,0.047358302785827366,1227.7775063901113,21638.584480013964
5.485485485485485,934.0885320770201,933.1922530854105,0.18523385435675196,0.0,0.2180411070760958,0.17952120444406114,0.04735622424210404,1227.7318495214922,21659.60822842818
5.505505505505505,934.2726693428593,933.3785203823861,0.18543754995747996,0.0,0.21810114537283992,0.17945934361172836,0.04735415732728069,1227.6862215187555,21680.598808885068
5.525525525525525,934.4565930025982,933.5643888979977,0.18564115260367017,0.0,0.21816112155388306,0.17939753725383395,0.04735210206125132,1227.6406069981076,21701.556324338762
5.545545545545545,934.6403383836699,933.7499007595122,0.18584473078359393,0.0,0.21822105681550863,0.17933576416189323,0.04735005847091411,1227.5949911391826,21722.4808784768
5.565565565565565,934.8239395633562,933.9350965805713,0.18604835054182892,0.0,0.21828097158621465,0.17927400389423218,0.047348026589977554,1227.5493596491938,21743.37257566821
5.585585585585585,935.0074294252182,934.120015524091,0.18625207563247542,0.0,0.21834088557451517,0.17921223672821093,0.04734600645877493,1227.5036987298236,21764.231520914214
5.605605605605605,935.1908397130744,934.3046953630228,0.18645596766067915,0.0,0.21840081781310236,0.17915044361608554,0.047343998124086954,1227.4579950466434,21785.057819801325
5.625625625625625,935.3742010826471,934.4891725390107,0.18666008621366645,0.0,0.21846078669974373,0.1790886061441337,0.04734200163897218,1227.4122357007961,21805.851578456783
5.645645645645645,935.5575431509568,934.6734822189569,0.18686448898207952,0.0,0.21852081003515897,0.17902670649479985,0.04734001706260513,1227.3664082027788,21826.61290350629
5.665665665665665,935.740894543548,934.8576583495286,0.18706923187242364,0.0,0.21858090505812883,0.17896472741160754,0.04733804446012148,1227.3205004481458,21847.34190203378
5.685685685685685,935.9242829396305,935.0417337096375,0.18727436911133066,0.0,0.21864108847805508,0.17890265216661944,0.04733608390247057,1227.2745006949792,21868.038681543236
5.7057057057057055,936.107735115234,935.22573996094,0.1874799533424321,0.0,0.21870137650521762,0.17884046453019942,0.04733413546627442,1227.2283975429586,21888.703349922493
5.7257257257257255,936.2912769844424,935.4097076963942,0.18768603571632714,0.0,0.2187617848788804,0.17877814874292527,0.04733219923369341,1227.182179913922,21909.336015408808
5.7457457457457455,936.47493363879,935.5936664869243,0.18789266597425777,0.0,0.2188223288934355,0.17871568948946204,0.047330275292298156,1227.1358370337873,21929.936786556224
5.7657657657657655,936.6587293849055,935.7776449262418,0.18809989252603393,0.0,0.21888302342275506,0.17865307187422702,0.04732836373494742,1227.0893584157163,21950.505772204564
5.7857857857857855,936.8426877804541,935.9616706738688,0.1883077625225274,0.0,0.21894388294284953,0.1785902813987471,0.0473264646596718,1227.0427338444524,21971.043081450065
5.8058058058058055,937.0268316684787,936.1457704964258,0.1885163219233789,0.0,0.21900492155303333,0.17852730394050897,0.047324578169562925,1226.9959533616932,21991.548823617508
5.8258258258258255,937.2111832101768,936.3299703072215,0.18872561556003037,0.0,0.21906615299563192,0.1784641257332661,0.047322704372667994,1226.949007252473,22012.02310823375
5.8458458458458455,937.3957639162086,936.5142952042154,0.1889356871947035,0.0,0.21912759067442428,0.17840073334861015,0.047320843381889376,1226.9018860324209,22032.46604500266
5.865865865865866,937.5805946765812,936.6987695063946,0.18914657957545783,0.0,0.21918924767186196,0.17833711367876523,0.047318995314889145,1226.8545804358664,22052.877743781395
5.885885885885886,937.7656957891835,936.883416788627,0.18935833448774167,0.0,0.21925113676519337,0.178273253920476,0.04731716029399819,1226.807081404704,22073.258314557843
5.905905905905906,937.9510869870132,937.0682599150341,0.18957099280257553,0.0,0.2193132704415364,0.17820914155994677,0.04731533844612989,1226.7593800779825,22093.607867429306
5.925925925925926,938.1367874641743,937.2533210709449,0.18978459452175486,0.0,0.21937566091202082,0.17814476435871052,0.04731352990269796,1226.7114677821412,22113.926512582286
5.945945945945946,938.3228159006921,937.4386217934862,0.18999917882025996,0.0,0.21943832012505782,0.17808011034036994,0.04731173479953853,1226.663336021849,22134.214360273367
5.965965965965966,938.5091904861945,937.6241830008488,0.19021478408602882,0.0,0.2195012597787857,0.17801516777816181,0.04730995327683593,1226.614976471412,22154.47152081106
5.985985985985986,938.6959289425117,937.8100250202891,0.19043144795731373,0.0,0.21956449133276093,0.17794992518327568,0.0473081854790524,1226.5663809667033,22174.69810453868
6.006006006006006,938.8830485452498,937.9961676149135,0.19064920735783386,0.0,0.21962802601895975,0.17788437129386092,0.047306431554861215,1226.5175414975702,22194.894221818126
6.026026026026026,939.0705661443883,938.1826300092982,0.19086809852990166,0.0,0.21969187485214636,0.17781849506466726,0.047304691657083286,1226.4684502006783,22215.05998301452
6.046046046046046,939.258498183928,938.3694309139826,0.19108815706556753,0.0,0.219756048639622,0.17775228565730403,0.04730296594262703,1226.4190993527832,22235.195498481673
6.066066066066066,939.4468607206577,938.5565885488904,0.19130941793604342,0.0,0.21982055799043457,0.17768573243103727,0.04730125457243117,1226.369481364376,22255.300878548427
6.086086086086086,939.6356694420621,938.7441206657215,0.19153191551947443,0.0,0.21988541332407252,0.17761882493410408,0.0472995577114107,1226.319588773682,22275.376233505624
6.106106106106106,939.8249396834223,938.9320445693551,0.1917556836271693,0.0,0.21995062487867573,0.1775515528955074,0.04729787552840547,1226.2694142409957,22295.421673593923
6.126126126126126,940.0146864441449,939.120377138311,0.19198075552846472,0.0,0.22001620271881878,0.17748390621723964,0.0472962081961316,1226.2189505433107,22315.437308992194
6.146146146146146,940.2049244033576,939.3091348443098,0.19220716397426887,0.0,0.22008215674288104,0.17741587496691816,0.047294555891135306,1226.1681905692308,22335.423249806638
6.166166166166166,940.3956679347972,939.4983337709633,0.1924349412193476,0.0,0.22014849669002243,0.17734744937081512,0.04729291879374917,1226.1171273141583,22355.3796060605
6.186186186186186,940.5869311210449,939.687989631649,0.19266411904357952,0.0,0.2202152321468367,0.17727861980720924,0.0472912970880508,1226.065753875701,22375.30648768434
6.206206206206206,940.7787277671191,939.8781177865898,0.19289472877209918,0.0,0.22028237255365565,0.17720937680008628,0.047289690961823644,1226.0140634493212,22395.204004506933
6.226226226226226,940.9710714134663,940.0687332591834,0.19312680129447446,0.0,0.2203499272105514,0.17713971101314135,0.04728810060651974,1225.9620493241912,22415.072266246665
6.246246246246246,941.163975348385,940.2598507516158,0.19336036708303128,0.0,0.22041790528307054,0.17706961324404866,0.04728652621722464,1225.9097048792373,22434.9113825034
6.266266266266266,941.3574526199011,940.4514846597873,0.19359545621030722,0.0,0.2204863158076955,0.17699907441900384,0.04728496799262414,1225.8570235793652,22454.721462750917
6.286286286286286,941.5515160471289,940.6436490875884,0.1938320983657569,0.0,0.22055516769707126,0.17692808558750103,0.047283426134972696,1225.8039989718534,22474.502616329737
6.306306306306306,941.7461782311409,940.8363578605513,0.19407032287173345,0.0,0.22062446974500452,0.17685663791733647,0.04728190085006361,1225.750624682899,22494.254952440413
6.326326326326326,941.9414515653747,941.0296245389128,0.19431015869883297,0.0,0.22069423063126314,0.17678472268981196,0.04728039234720082,1225.6968944143011,22513.97858013724
6.346346346346346,942.1373482455944,941.2234624301094,0.19455163448059257,0.0,0.22076445892617277,0.17671233129514122,0.047278900839172175,1225.6428019402888,22533.673608322384
6.366366366366366,942.3338802794265,941.4178846007325,0.19479477852758917,0.0,0.22083516309502482,0.17663945522804367,0.04727742654222411,1225.5883411044686,22553.34014574033
6.386386386386386,942.5310594955133,941.6129038879818,0.19503961884111035,0.0,0.2209063515023505,0.17656608608347288,0.047275969676037706,1225.5335058168746,22572.97830097277
6.406406406406406,942.728897552273,941.8085329106214,0.19528618312622825,0.0,0.22097803241600683,0.17649221555253225,0.04727453046370602,1225.478290051142,22592.588182433778
6.426426426426427,942.9274059463081,942.0047840794807,0.1955344988044593,0.0,0.22105021401113267,0.1764178354185204,0.04727310913171262,1225.4226878417694,22612.169898365333
6.446446446446447,943.1265960204762,942.2016696075133,0.19578459302602247,0.0,0.22112290437397836,0.1763429375531031,0.047271705909911206,1225.36669328147,22631.72355683317
6.466466466466467,943.3264789716287,942.3992015194336,0.19603649268162038,0.0,0.22119611150558566,0.1762675139126342,0.04727032103150638,1225.3103005186272,22651.24926572291
6.486486486486487,943.5270658580635,942.5973916609678,0.19629022441400598,0.0,0.22126984332539953,0.17619155653454513,0.047268954733035384,1225.2535037547905,22670.74713273649
6.506506506506507,943.7283676066613,942.7962517077115,0.19654581462900675,0.0,0.22134410767471002,0.17611505753390339,0.04726760725435071,1225.1962972422948,22690.217265388863
6.526526526526527,943.9303950197758,942.995793173644,0.19680328950643064,0.0,0.22141891232005603,0.17603800910000916,0.047266278838603744,1225.1386752819028,22709.659771004943
6.546546546546547,944.1331587818439,943.1960274192929,0.1970626750105401,0.0,0.2214942649564939,0.17596040349312753,0.04726496973222907,1225.0806322205376,22729.074756716844
6.566566566566567,944.3366694657507,943.3969656595742,0.19732399690024569,0.0,0.22157017321077727,0.17588223304130804,0.04726368018492969,1225.022162449082,22748.4623294613
6.586586586586587,944.5409375389731,943.5986189713338,0.19758728073914536,0.0,0.22164664464448838,0.17580349013725388,0.047262410449662874,1224.9632604002059,22767.822595977363
6.606606606606607,944.7459733694984,943.8009983005952,0.1978525519052759,0.0,0.22172368675707854,0.17572416723528073,0.04726116078262672,1224.9039205462561,22787.15566280428
6.626626626626627,944.9517872315197,944.0041144695218,0.19811983560054966,0.0,0.22180130698880987,0.17564425684837487,0.04725993144324726,1224.8441373972182,22806.461636279608
6.646646646646647,945.1583893109511,944.20797818313,0.1983891568601036,0.0,0.22187951272366904,0.17556375154527862,0.047258722694166366,1224.783905498692,22825.74062253752
6.666666666666667,945.3657897107414,944.4126000357439,0.19866054056136423,0.0,0.22195831129219165,0.17548264394766527,0.047257534801229864,1224.723219429933,22844.992727507306
6.686686686686687,945.5739984560197,944.61799051722,0.19893401143298342,0.0,0.22203770997424563,0.1754009267273545,0.047256368033476374,1224.6620738019158,22864.218056912036
6.706706706706707,945.7830254990597,944.824160018942,0.19920959406352218,0.0,0.22211771600173583,0.175318592603607,0.04725522266312652,1224.6004632554593,22883.416716267424
6.726726726726727,945.9928807240898,945.0311188396046,0.1994873129099966,0.0,0.22219833656126475,0.17523563434046213,0.04725409896557253,1224.5383824593755,22902.588810880865
6.746746746746747,946.203573951955,945.2388771907998,0.1997671923062994,0.0,0.222279578796754,0.17515204474411528,0.047252997219368244,1224.4758261086467,22921.734445850616
6.766766766766767,946.4151149446259,945.4474452024051,0.200049256471404,0.0,0.22236144981199776,0.17506781666036267,0.04725191770621936,1224.4127889226518,22940.853726065125
6.786786786786787,946.6275134095746,945.6568329277937,0.20033352951745934,0.0,0.22244395667318115,0.17498294297208122,0.04725086071097411,1224.3492656434134,22959.94675620254
6.806806806806807,946.8407790040209,945.8670503488704,0.20062003545772478,0.0,0.22252710641134915,0.17489741659675787,0.04724982652161405,1224.28525103388,22979.013640730358
6.826826826826827,947.0549213390522,946.0781073809441,0.2009087982143723,0.0,0.22261090602483305,0.17481123048406097,0.047248815429245146,1224.2207398762382,22998.054483905158
6.846846846846847,947.2699499836199,946.2900138774396,0.20119984162611151,0.0,0.2226953624816216,0.17472437761346696,0.047247827728089074,1224.1557269702614,23017.069389772558
6.866866866866867,947.4858744684408,946.5027796344717,0.20149318945579353,0.0,0.22278048272172543,0.1746368509918938,0.04724686371547453,1224.0902071316632,23036.058462167206
6.886886886886887,947.7027042897705,946.716414395266,0.20178886539775573,0.0,0.22286627365945993,0.17454864365141537,0.047245923691828846,1224.0241751905078,23055.021804712964
6.906906906906907,947.920448913094,946.9309278544574,0.20208689308517055,0.0,0.22295274218572977,0.1744597486469745,0.04724500796066956,1223.957625989618,23073.95952082318
6.926926926926927,948.1391177766963,947.1463296622458,0.20238729609710512,0.0,0.22303989517022269,0.1743701590541866,0.047244116828596076,1223.8905543830472,23092.871713701083
6.946946946946947,948.3587202951717,947.3626294284511,0.20269009796569445,0.0,0.22312773946363837,0.17427986796710757,0.04724325060528138,1223.822955234525,23111.758486340263
6.966966966966967,948.5792658628139,947.5798367264323,0.20299532218297145,0.0,0.2232162818998105,0.17418886849610896,0.04724240960346373,1223.7548234159776,23130.61994152529
6.986986986986987,948.8007638569349,947.7979610969063,0.2033029922076784,0.0,0.22330552929782285,0.1740971537657588,0.047241594138938255,1223.6861538060527,23149.456181832422
7.007007007007007,949.0232236411083,948.0170120516619,0.20361313147200866,0.0,0.2233954884641036,0.174004716912724,0.047240804530548616,1223.61694128866,23168.267309630402
7.027027027027027,949.2466545683268,948.2369990771718,0.2039257633881603,0.0,0.22348616619446046,0.1739115510837317,0.04724004110017847,1223.5471807515478,23187.053427081377
7.047047047047047,949.4710659840847,948.457931638106,0.2042409113547878,0.0,0.22357756927608477,0.1738176494335617,0.04723930417274287,1223.4768670849085,23205.814636141844
7.067067067067067,949.6964672293934,948.679819180756,0.2045585987633603,0.0,0.22366970448952592,0.17372300512306854,0.04723859407617943,1223.4059951799986,23224.5510385638
7.087087087087087,949.9228676437278,948.902671136373,0.20487884900441045,0.0,0.22376257861063198,0.17362761131723703,0.04723791114143948,1223.334559927785,23243.26273589584
7.107107107107107,950.1502765679047,949.1264969244187,0.20520168547364967,0.0,0.22385619841244847,0.1735314611832794,0.047237255702478824,1223.2625562176183,23261.94982948443
7.127127127127127,950.3787033468897,949.3513059557326,0.20552713157792304,0.0,0.22395057066706756,0.17343454788878224,0.04723662809624841,1223.189978935943,23280.612420475238
7.147147147147147,950.6081573325727,949.577107635638,0.20585521074125643,0.0,0.22404570214750583,0.17333686459982467,0.047236028662684684,1223.1168229649845,23299.25060981452
7.167167167167167,950.8386478864387,949.8039113669483,0.20618594641046126,0.0,0.22414159962944444,0.17323840447923358,0.04723545774469967,1223.0430831815363,23317.86449825061
7.187187187187187,951.0701843822231,950.031726552927,0.20651936206094057,0.0,0.22423826989303236,0.17313916068477647,0.04723491568817074,1222.9687544556975,23336.45418633545
7.207207207207207,951.3027762084871,950.2605626001623,0.20685548120218142,0.0,0.22433571972459168,0.1730391263674511,0.04723440284193001,1222.8938316496835,23355.019774426222
7.227227227227227,951.5364327711522,950.4904289213858,0.20719432738324145,0.0,0.22443395591832155,0.17293829466977717,0.04723391955775347,1222.818309616635,23373.561362687018
7.247247247247247,951.7711634959722,950.7213349382201,0.20753592419803746,0.0,0.22453298527794063,0.1728366587241491,0.0472334661903496,1222.7421831994693,23392.07905109059
7.267267267267267,952.0069778309656,950.9532900838716,0.20788029529059798,0.0,0.22463281461831858,0.17273421165119943,0.047233043097347674,1222.6654472297414,23410.57293942015
7.287287287287287,952.2438852487956,951.1863038057608,0.2082274643601657,0.0,0.22473345076706108,0.172630946558209,0.04723265063928557,1222.5880965265364,23429.04312727124
7.307307307307307,952.4818952490947,951.4203855680938,0.2085774551661483,0.0,0.22483490056604793,0.17252685653756367,0.047232289179597056,1222.5101258953944,23447.489714053663
7.327327327327327,952.7210173607663,951.6555448543879,0.20893029153309453,0.0,0.22493717087297907,0.17242193466520273,0.04723195908459876,1222.431530127228,23465.912798993457
7.347347347347347,952.9612611442053,951.8917911699268,0.2092859973553159,0.0,0.22504026856281129,0.17231617399917712,0.04723166072347638,1222.3523039973218,23484.312481134926
7.367367367367367,953.2026361935228,952.1291340441878,0.20964459660171794,0.0,0.22514420052925954,0.17220956757814235,0.04723139446827055,1222.2724422642802,23502.688859342725
7.387387387387387,953.445152138677,952.3675830331921,0.21000611332016966,0.0,0.2252489736861559,0.172102108419994,0.047231160693862004,1222.1919396690787,23521.042032304016
7.407407407407407,953.6888186476018,952.6071477218275,0.2103705716420183,0.0,0.22535459496885352,0.17199378952045793,0.047230959777956195,1222.1107909340817,23539.372098530606
7.4274274274274275,953.933645428282,952.847837726117,0.2107379957864106,0.0,0.2254610713355708,0.17188460385174,0.04723079210106729,1222.0289907621052,23557.679156361235
7.4474474474474475,954.1796422307877,953.0896626954395,0.21110841006447387,0.0,0.2255684097686929,0.17177454436121903,0.047230658046501436,1221.9465338355046,23575.963303963785
7.4674674674674675,954.4268188492682,953.3326323147068,0.21148183888339062,0.0,0.22567661727603988,0.17166360397017177,0.047230558000339505,1221.863414815291,23594.224639337666
7.4874874874874875,954.6751851239214,953.5767563065028,0.21185830675043357,0.0,0.22578570089212352,0.17155177557251028,0.047230492351418914,1221.7796283402508,23612.46326031613
7.5075075075075075,954.924750942907,953.8220444331704,0.2122378382767563,0.0,0.2258956676793285,0.17143905203359405,0.047230461491314914,1221.6951690261226,23630.67926456868
7.5275275275275275,955.1755262442454,954.0685064988683,0.21262045818122716,0.0,0.22600652472910765,0.1713254261890285,0.04723046581432101,1221.6100314647613,23648.872749603514
7.5475475475475475,955.4275210176711,954.3161523515842,0.21300619129406975,0.0,0.22611827916311716,0.1712108908435225,0.04723050571742856,1221.5242102233444,23667.043812770004
7.5675675675675675,955.6807453064511,954.564991885107,0.21339506256039337,0.0,0.22623093813431877,0.17109543876977995,0.04723058160030569,1221.437699843605,23685.192551261192
7.587587587587588,955.9352092091764,954.8150350409638,0.21378709704364957,0.0,0.2263445088280592,0.1709790627074129,0.04723069386527524,1221.350494841077,23703.31906211636
7.607607607607608,956.1909228815128,955.0662918103183,0.21418231992894085,0.0,0.22645899846310433,0.17086175536190062,0.04723084291729188,1221.262589704373,23721.423442223575
7.627627627627628,956.4478965379355,955.3187722358389,0.21458075652630507,0.0,0.22657441429266625,0.17074350940355498,0.04723102916391839,1221.173978894468,23739.505788322338
7.647647647647648,956.7061404534128,955.572486413523,0.21498243227378316,0.0,0.22669076360536414,0.1706243174665525,0.04723125301530087,1221.084656844031,23757.5661970062
7.667667667667668,956.9656649650825,955.8274444944992,0.21538737274051706,0.0,0.2268080537261946,0.17050417214795624,0.04723151488414319,1220.9946179567476,23775.604764725445
7.687687687687688,957.226480473878,956.0836566867833,0.21579560362961483,0.0,0.22692629201743075,0.17038306600680928,0.04723181518568028,1220.9038566066936,23793.62158778978
7.707707707707708,957.4885974461423,956.3411332570143,0.2162071507810224,0.0,0.2270454858795239,0.17026099156322502,0.04723215433765053,1220.8123671377082,23811.616762371083
7.727727727727728,957.752026415207,956.5998845321521,0.21662204017424988,0.0,0.22716564275196097,0.170137941297522,0.047232532760267086,1220.720143862797,23829.590384506122
7.747747747747748,958.0167779829467,956.8599209011471,0.21704029793101332,0.0,0.22728677011409607,0.17001390764938418,0.04723295087618809,1220.627181063554,23847.542550099362
7.767767767767768,958.2828628213045,957.1212528165793,0.21746195031776322,0.0,0.2274088754859481,0.16988888301705507,0.04723340911048594,1220.5334729896076,23865.473354925765
7.787787787787788,958.5502916737952,957.3838907962692,0.2178870237481529,0.0,0.22753196642898027,0.16976285975655003,0.04723390789061519,1220.4390138580804,23883.3828946336
7.807807807807808,958.8190753569825,957.647845424861,0.21831554478538776,0.0,0.22765605054684326,0.16963583018090428,0.04723444764637959,1220.343797853073,23901.271264747294
7.827827827827828,959.0892247619374,957.91312735538,0.21874754014453696,0.0,0.22778113548610804,0.16950778655943174,0.04723502880989766,1220.2478191251562,23919.138560670322
7.847847847847848,959.3607508556672,958.179747310762,0.219183036694703,0.0,0.227907228936955,0.16937872111702695,0.04723565181556734,1220.1510717908966,23936.984877688083
7.867867867867868,959.6336646825159,958.4477160853522,0.21962206146107513,0.0,0.2280343386338282,0.1692486260335019,0.04723631710002913,1220.0535499324023,23954.810310970788
7.887887887887888,959.907977365565,958.7170445463917,0.2200646416270458,0.0,0.2281624723561098,0.16911749344290233,0.047237025102128224,1219.955247596859,23972.614955576424
7.907907907907908,960.1837001079839,958.9877436354643,0.22051080453604283,0.0,0.22829163792870769,0.16898531543291126,0.04723777626287513,1219.8561587961242,23990.398906453673
7.927927927927928,960.4608441943866,959.2598243699339,0.22096057769347127,0.0,0.22842184322267753,0.16885208404421703,0.04723857102540511,1219.7562775063025,24008.16225844489
7.947947947947948,960.7394209921497,959.5332978443485,0.22141398876843818,0.0,0.22855309615577882,0.16871779126994801,0.047239409834936234,1219.6555976673603,24025.905106289083
7.967967967967968,961.0194419527198,959.8081752318285,0.22187106559547093,0.0,0.22868540469302995,0.16858242905510779,0.04724029313872607,1219.5541131827486,24043.6275446249
7.987987987987988,961.3009155581817,960.0844659936156,0.22233181537221933,0.0,0.22881877038738735,0.1684459957559113,0.04724122138606684,1219.4518224177048,24061.329667957933
8.008008008008009,961.5838558113184,960.3621826865685,0.22279628391774473,0.0,0.22895320678018785,0.1683084777393387,0.047242195028212246,1219.348715385236,24079.011570661918
8.028028028028029,961.868275199299,960.6413371908417,0.2232645047914644,0.0,0.22908872360198976,0.16816986518220192,0.04724321451821361,1219.2447847485603,24096.673347093918
8.048048048048049,962.1541855273521,960.9219410352501,0.22373650633066733,0.0,0.22922532895780057,0.16803014988595502,0.047244280310979006,1219.1400242993454,24114.315091524797
8.068068068068069,962.441598689599,961.2040058301367,0.22421231705877814,0.0,0.22936303100643218,0.16788932359732994,0.04724539286322424,1219.03442778822,24131.93689814035
8.088088088088089,962.7305266704518,961.4875432690247,0.2246919656857377,0.0,0.22950183796064802,0.16774737800817832,0.04724655263341979,1218.9279889246795,24149.538861044333
8.108108108108109,963.020981545976,961.7725651302181,0.22517548110836946,0.0,0.2296417580873072,0.16760430475531696,0.047247760081736444,1218.8207013770011,24167.12107426154
8.128128128128129,963.3129754852212,962.0590832783514,0.22566289241072954,0.0,0.2297827997075047,0.16746009542037651,0.0472490156699893,1218.7125587721546,24184.683631740838
8.148148148148149,963.6065207515207,962.3471096658953,0.22615422886444125,0.0,0.22992497119670777,0.16731474152965403,0.047250319861580195,1218.603554695724,24202.22662735828
8.168168168168169,963.9016297037642,962.6366563346198,0.22664951992901247,0.0,0.2300682809848882,0.16716823455396937,0.04725167312143853,1218.4936826918276,24219.750154920184
8.188188188188189,964.1983147976431,962.927735417016,0.2271487952521351,0.0,0.2302127375566504,0.16702056590852546,0.04725307591596038,1218.3829362630433,24237.254308166262
8.208208208208209,964.4965885868723,963.2203591376832,0.2276520846699669,0.0,0.23035834945135494,0.16687172695277325,0.04725452871294604,1218.2713088703376,24254.739180772725
8.228228228228229,964.79646372439,963.5145398146805,0.22815941820739333,0.0,0.23050512526323755,0.16672170899028071,0.04725603198153572,1218.1587939329995,24272.204866355434
8.248248248248249,965.0979529635346,963.8102898608449,0.2286708260782708,0.0,0.23065307364152332,0.16657050326860667,0.047257586192143555,1218.045384828577,24289.65145847304
8.268268268268269,965.401069159205,964.1076217850832,0.2291863386856484,0.0,0.2308022032905358,0.16641810097917925,0.04725919181638991,1217.931074892818,24307.079050630146
8.288288288288289,965.7058252690005,964.4065481936307,0.22970598662196925,0.0,0.23095252296980098,0.16626449325717954,0.0472608493270317,1217.8158574196184,24324.487736280455
8.308308308308309,966.0122343543452,964.7070817912893,0.23022980066925006,0.0,0.23110404149414587,0.16610967118143039,0.04726255919789099,1217.6997256609684,24341.877608829967
8.328328328328329,966.3203095815974,965.0092353826387,0.23075781179923768,0.0,0.2312567677337915,0.1659536257742904,0.04726432190378172,1217.582672826911,24359.24876164015
8.348348348348349,966.6300642231432,965.3130218732246,0.23129005117354307,0.0,0.23141071061444018,0.16579634800155368,0.04726613792043443,1217.4646920855012,24376.601288031143
8.368368368368369,966.9415116584803,965.6184542707291,0.23182655014375098,0.0,0.23156587911735696,0.1656378287723552,0.0472680077244192,1217.3457765627688,24393.935281284936
8.388388388388389,967.2546653752846,965.9255456861184,0.2323673402515052,0.0,0.23172228227944447,0.16547805893908224,0.04726993179306645,1217.2259193426921,24411.250834648603
8.408408408408409,967.5695389704714,966.2343093347753,0.2329124532285686,0.0,0.23187992919331205,0.16531702929729175,0.047271910604385896,1217.1051134671693,24428.548041337486
8.428428428428429,967.8861461512419,966.5447585376127,0.23346192099685711,0.0,0.2320388290073378,0.16515473058563426,0.04727394463698339,1216.9833519360013,24445.82699453844
8.448448448448449,968.204500736123,966.8569067221747,0.23401577566844675,0.0,0.23219899092572419,0.16499115348578422,0.04727603436997576,1216.8606277068777,24463.08778741305
8.468468468468469,968.5246166559971,967.1707674237203,0.23457404954555366,0.0,0.2323604242085468,0.16482628862237697,0.047278180282903516,1216.736933695369,24480.330513100856
8.488488488488489,968.8465079551249,967.486354286297,0.23513677512048575,0.0,0.23252313817179554,0.16466012656295276,0.047280382855641526,1216.6122627749241,24497.5552647226
8.508508508508509,969.170188792161,967.8036810637991,0.23570398507556548,0.0,0.23268714218740896,0.16449265781790787,0.04728264256830742,1216.486607776875,24514.76213538347
8.528528528528529,969.4956734411619,968.1227616210176,0.2362757122830229,0.0,0.2328524456833007,0.16432387284045297,0.04728495990116802,1216.359961490445,24531.951218176335
8.548548548548549,969.8229762925895,968.4436099346783,0.2368519898048588,0.0,0.2330190581433782,0.1641537620265791,0.0472873353345434,1216.2323166627684,24549.122606185025
8.568568568568569,970.1521118543087,968.7662400944706,0.23743285089267624,0.0,0.2331869891075538,0.1639823157150314,0.04728976934870883,1216.1036659989109,24566.27639248755
8.588588588588589,970.4830947525801,969.0906663040676,0.23801832898748057,0.0,0.23335624817174708,0.16380952418729067,0.04729226242379443,1215.9740021619011,24583.412670159418
8.608608608608609,970.8159397330477,969.4169028821386,0.2386084577194468,0.0,0.23352684498787918,0.16363537766756317,0.047294815039682594,1215.8433177727657,24600.531532276847
8.62862862862863,971.1506616617245,969.7449642633537,0.2392032709076535,0.0,0.23369878926385843,0.1634598663227789,0.047297427675903066,1215.7116054105736,24617.63307192007
8.64864864864865,971.4872755259724,970.0748649993815,0.23980280255978265,0.0,0.23387209076355694,0.1632829802625984,0.047300100811525726,1215.5788576124876,24634.71738217659
8.66866866866867,971.8257964354805,970.4066197598811,0.2404070868717846,0.0,0.23404675930677854,0.1631047095394282,0.047302834925051045,1215.4450668738211,24651.7845561445
8.68868868868869,972.1662396232405,970.7402433334886,0.24101615822750727,0.0,0.23422280476921675,0.16292504414844566,0.0473056304942981,1215.310225648105,24668.834686935726
8.70870870870871,972.508620446519,971.0757506287974,0.24163005119828881,0.0,0.23440023708240373,0.1627439740276329,0.04730848799629032,1215.1743263471592,24685.867867679328
8.72872872872873,972.8529543878285,971.413156675336,0.24224880054251308,0.0,0.23457906623364946,0.16256148905782022,0.04731140790713863,1215.0373613411757,24702.884191524805
8.74874874874875,973.1992570558959,971.7524766245381,0.24287244120512672,0.0,0.23475930226597028,0.16237757906273936,0.047314390701922344,1214.8993229588061,24719.883751645397
8.76876876876877,973.5475441866297,972.0937257507131,0.24350100831711746,0.0,0.23494095527800812,0.16219223380908676,0.04731743685456748,1214.7602034872602,24736.866641241355
8.78878878878879,973.8978316440863,972.4369194520096,0.2441345371949526,0.0,0.23512403542393817,0.16200544300659697,0.04732054683772259,1214.6199951724104,24753.832953543268
8.80880880880881,974.2501354214344,972.7820732513773,0.2447730633399766,0.0,0.23530855291336644,0.16181719630812685,0.047323721122632154,1214.4786902189073,24770.78278181539
8.82882882882883,974.604471641919,973.1292027975262,0.24541662243776713,0.0,0.23549451801121618,0.1616274833097501,0.04732696017900735,1214.3362807903015,24787.716219358903
8.84884884884885,974.960856559825,973.478323865883,0.24606525035744875,0.0,0.2356819410376027,0.16143629355086314,0.047330264474894364,1214.192759009177,24804.633359515294
8.86886886886887,975.3193065614388,973.8294523595451,0.24671898315096313,0.0,0.23587083236769674,0.16124361651430213,0.047333634476540064,1214.0481169572897,24821.534295669615
8.88888888888889,975.679838166011,974.1826043102334,0.24737785705229456,0.0,0.23606120243157602,0.1610494416264721,0.047337070648255104,1213.9023466757208,24838.41912125386
8.90890890890891,976.0424680267179,974.5377958792416,0.24804190847665067,0.0,0.2362530617140644,0.16085375825748682,0.04734057345227446,1213.7554401650348,24855.28792975027
8.92892892892893,976.4072129316228,974.895043358386,0.2487111740195962,0.0,0.23644642075455874,0.1606565557213222,0.04734414334861526,1213.6073893854498,24872.140814694656
8.94894894894895,976.7740898046366,975.2543631709524,0.24938569045613976,0.0,0.2366412901468427,0.16045782327598127,0.04734778079493204,1213.458186257017,24888.97786967975
8.96896896896897,977.1431157064794,975.6157718726428,0.2500654947397716,0.0,0.23683768053888757,0.16025755012367246,0.04735148624636935,1213.3078226598107,24905.799188358546
8.98898898898899,977.5143078356404,975.9792861525198,0.25075062400145237,0.0,0.23703560263263945,0.1600557254110009,0.04735526015541157,1213.1562904341292,24922.604864447632
9.00900900900901,977.8876835293388,976.3449228339517,0.25144111554854975,0.0,0.23723506718379256,0.15985233822917325,0.047359102971730155,1213.0035813807053,24939.394991730547
9.02902902902903,978.2632602644829,976.7126988755543,0.2521370068637248,0.0,0.2374360850015482,0.15964737761421663,0.047363015142028134,1212.8496872609276,24956.169664061115
9.04904904904905,978.6410556586304,977.0826313721356,0.25283833560376245,0.0,0.2376386669483591,0.1594408325472119,0.04736699710988186,1212.6945997970756,24972.92897536685
9.06906906906907,979.0210874709463,977.4547375556349,0.25354513959834857,0.0,0.23784282393965844,0.1592326919545417,0.04737104931558009,1212.5383106725633,24989.67301965224
9.08908908908909,979.403373603161,977.829034796066,0.25425745684878986,0.0,0.23804856694357313,0.1590229447081539,0.0473751721959602,1212.3808115321965,25006.401891002166
9.10910910910911,979.7879321005278,978.2055406024563,0.2549753255266753,0.0,0.2382559069806211,0.15881157962584078,0.04737936618424179,1212.222093982443,25023.115683585267
9.12912912912913,980.1747811527769,978.5842726237875,0.25569878397247703,0.0,0.2384648551233915,0.15859858547153508,0.047383631709857356,1212.0621495917123,25039.814491657275
9.14914914914915,980.5639390950687,978.9652486499328,0.2564278706940893,0.0,0.23867542249620738,0.15838395095562235,0.04738796919828039,1211.900969890653,25056.498409564414
9.16916916916917,980.9554244089447,979.3484866125972,0.25716262436530185,0.0,0.23888762027477034,0.1581676647352724,0.04739237907085041,1211.7385463724602,25073.16753174679
9.18918918918919,981.3492557232746,979.7340045862531,0.25790308382420635,0.0,0.23910145968578567,0.15794971541478844,0.047396861744595495,1211.5748704931991,25089.821952741742
9.20920920920921,981.7454518151983,980.1218207890768,0.25864928807153154,0.0,0.23931695200656777,0.1577300915459761,0.047401417632051766,1211.4099336721438,25106.461767187247
9.22922922922923,982.1440316110638,980.5119535838834,0.25940127626890497,0.0,0.23953410856462423,0.15750878162853388,0.04740604714108021,1211.2437272921286,25123.087069825317
9.24924924924925,982.5450141873594,980.9044214790598,0.26015908773703583,0.0,0.23975294073721745,0.15728577411046457,0.047410750674680584,1211.0762426999213,25139.69795550536
9.26926926926927,982.9484187716341,981.2992431294972,0.26092276195381503,0.0,0.2399734599509022,0.15706105738851114,0.047415528630802596,1210.9074712066092,25156.294519187606
9.28928928928929,983.3542647434125,981.6964373375195,0.261692338552327,0.0,0.24019567768103786,0.15683461980861754,0.047420381402154134,1210.7374040880059,25172.87685594649
9.30930930930931,983.7625716350924,982.0960230538097,0.262467857318766,0.0,0.24041960545127242,0.15660644966641635,0.04742530937600681,1210.5660325850783,25189.44506097407
9.32932932932933,984.1733591328316,982.4980193783349,0.2632493581902503,0.0,0.24064525483299676,0.1563765352077469,0.04743031293399856,1210.3933479043953,25205.99922958341
9.34934934934935,984.5866470774116,982.9024455612642,0.26403688125252384,0.0,0.2408726374447657,0.15614486462920535,0.047435392451933456,1210.2193412186007,25222.539457211977
9.36936936936937,985.0024554650803,983.3093210038846,0.26483046673753535,0.0,0.2411017649516828,0.15591142607873096,0.04744054829957868,1210.0440036669097,25239.065839425086
9.38938938938939,985.4208044483659,983.7186652595105,0.2656301550208812,0.0,0.2413326490647443,0.15567620765623247,0.04744578084045872,1209.8673263556395,25255.578471919285
9.40940940940941,985.8417143368547,984.1304980343855,0.26643598661909706,0.0,0.24156530154013775,0.15543919741425943,0.047451090431646664,1209.6893003587668,25272.077450525743
9.42942942942943,986.2652055979271,984.5448391885768,0.267248002186777,0.0,0.24179973417848927,0.15520038335872455,0.04745647742355275,1209.5099167185263,25288.56287121369
9.44944944944945,986.6912988574404,984.9617087368606,0.2680662425135001,0.0,0.24203595882405174,0.15495975344968418,0.047461942159710044,1209.3291664460462,25305.034830093817
9.46946946946947,987.1200149003481,985.3811268495933,0.2688907485205331,0.0,0.24227398736382577,0.1547172956021861,0.047467484976557395,1209.147040522038,25321.493423421638
9.48948948948949,987.5513746712381,985.8031138535716,0.26972156125727687,0.0,0.24251383172660218,0.1544729976871947,0.04747310620321955,1208.9635298975331,25337.93874760094
9.50950950950951,987.9853992747779,986.2276902328725,0.27055872189741403,0.0,0.24275550388191333,0.15422684753260713,0.04747880616128455,1208.778625494692,25354.370899187128
9.52952952952953,988.4221099760375,986.6548766296752,0.27140227173470577,0.0,0.24299901583887687,0.15397883292437645,0.04748458516457829,1208.5923182076813,25370.78997489063
9.54954954954955,988.861528200669,987.0846938450571,0.2722522521783754,0.0,0.2432443796449126,0.15372894160776082,0.04749044351893647,1208.4045989036451,25387.196071580223
9.56956956956957,989.303675534907,987.5171628397618,0.27310870474800153,0.0,0.24349160738430825,0.15347716128872382,0.04749638152197376,1208.2154584237799,25403.589286286428
9.58958958958959,989.7485737253496,987.9523047349304,0.2739716710678243,0.0,0.24374071117660429,0.15322347963551453,0.04750239946285033,1208.0248875845336,25419.96971620479
9.60960960960961,990.196244678467,988.3901408127928,0.27484119286034797,0.0,0.2439917031747612,0.15296788428046465,0.04750849762203571,1207.8328771789631,25436.337458699192
9.62962962962963,990.6467104597799,988.8306925173066,0.2757173119390946,0.0,0.2442445955630646,0.15271036282204795,0.0475146762710702,1207.6394179782656,25452.692611305105
9.64964964964965,991.0999932926246,989.2739814547379,0.27660007020032884,0.0,0.24449940055471123,0.15245090282725712,0.04752093567232352,1207.4445007335391,25469.03527173279
9.66966966966967,991.5561155564118,989.720029394169,0.27748950961353097,0.0,0.24475613038900737,0.1521894918343683,0.047527276078751214,1207.248116177811,25485.36553787048
9.68968968968969,992.0150997842584,990.1688582679208,0.278385672210343,0.0,0.2450147973280937,0.15192611735617853,0.04753369773364858,1207.0502550283938,25501.68350778741
9.70970970970971,992.4769686598427,990.620490171872,0.2792886000716439,0.0,0.2452754136530896,0.15166076688382288,0.04754020087040231,1206.8509079896505,25517.989279736867
9.72972972972973,992.9417450132986,991.0749473656565,0.2801983353123276,0.0,0.24553799165952403,0.15139342789130447,0.04754678571224,1206.6500657562485,25534.282952159014
9.74974974974975,993.4094518159178,991.5322522727128,0.2811149200632512,0.0,0.24580254365188814,0.15112408784090212,0.047553452471977536,1206.4477190170326,25550.56462368368
9.76976976976977,993.8801121733688,991.9924274801599,0.2820383964496917,0.0,0.24606908193710275,0.15085273418966275,0.04756020135176485,1206.2438584596475,25566.83439313288
9.78978978978979,994.3537493170764,992.4554957384642,0.2829688065654792,0.0,0.2463376188166427,0.1505793543972357,0.047567032542829804,1206.0384747760963,25583.09235952321
9.80980980980981,994.830386593305,992.9214799608561,0.28390619244177323,0.0,0.24660816657699622,0.1503039359353721,0.04757394622522091,1205.8315586694562,25599.338622067917
9.82982982982983,995.3100474493831,993.3904032224514,0.28485059600918056,0.0,0.2468807374780547,0.1500264662994925,0.04758094256754892,1205.6231008620346,25615.573280178658
9.84984984984985,995.792755416358,993.862288759019,0.285802059051586,0.0,0.2471553437389262,0.1497469330228306,0.047588021726727936,1205.4130921053159,25631.79643346685
9.86986986986987,996.2785340871876,994.3371599653291,0.2867606231496505,0.0,0.24743199752053666,0.14946532369378857,0.04759518384771631,1205.201523192142,25648.008181744517
9.88988988988989,996.7674070893465,994.8150403930016,0.28772632961140276,0.0,0.24771071090421815,0.14918162597730475,0.04760242906325831,1204.988384971684,25664.208625024457
9.90990990990991,997.2593980504325,995.295953747762,0.28869921938668386,0.0,0.24799149586527605,0.14889582764124135,0.04760975749362708,1204.7736683679022,25680.397863519716
9.92992992992993,997.7545305549897,995.7799238859976,0.28967933296136184,0.0,0.24827436424026603,0.1486079165890627,0.04761716924637015,1204.5573644023868,25696.575997641914
9.94994994994995,998.252828090297,996.2669748104798,0.29066671022615925,0.0,0.24855932768637554,0.1483178809004073,0.04762466441605872,1204.3394642226783,25712.743127998503
9.96996996996997,998.7543139782725,996.7571306651091,0.29166139031358007,0.0,0.24884639763088554,0.1480257088815803,0.04763224308404239,1204.119959137494,25728.899355388345
9.98998998998999,999.2590112898936,997.2504157284963,0.2926634113946944,0.0,0.2491355852081473,0.14773138912852954,0.047639905318211544,1203.8988406606306,25745.044780795444
10.01001001001001,999.7669427375655,997.7468544061809,0.29367281042534327,0.0,0.24942690118082958,0.14743491060555142,0.04764765117276993,1203.6761005658034,25761.179505380194
10.03003003003003,1000.2781305396518,998.2464712212335,0.29468962282853495,0.0,0.24972035584131952,0.14713626274384214,0.047655480688020974,1203.4517309552857,25777.303630467595
10.05005005005005,1000.7925962498172,998.7492908029583,0.2957138820962454,0.0,0.2500159588880578,0.1468354355651152,0.04766339389017212,1203.2257243459744,25793.41725753166
10.07007007007007,1001.3103605418513,999.255337873343,0.2967456192893139,0.0,0.250313719270178,0.14653241983691379,0.04767139079116278,1202.99807377749,25809.520488174963
10.09009009009009,1001.831442938114,999.7646372308321,0.297784862408357,0.0,0.250613644992029,0.14622720726804114,0.04767947138852286,1202.7687729481725,25825.61342410219
10.11011011011011,1002.3558614665142,1000.2772137308959,0.29883163560128984,0.0,0.25091574286687623,0.14591979075481099,0.04768763566527102,1202.5378163864027,25841.696167085986
10.13013013013013,1002.8836322268501,1000.7930922627039,0.2998859581637172,0.0,0.25122001820617645,0.14561016469172608,0.047695883589864,1202.3051996667202,25857.768818923174
10.15015015015015,1003.4147688421191,1001.3122977209865,0.3009478432766105,0.0,0.25152647442713605,0.1452983253638733,0.047704215116211736,1202.070919682747,25873.831481378813
10.17017017017017,1003.9492817638143,1001.8348549717869,0.30201729641067365,0.0,0.25183511255659197,0.1449842714429972,0.04771263018377721,1201.834974992189,25889.88425611485
10.19019019019019,1004.4871773918742,1002.3607888102092,0.30309431330784553,0.0,0.25214593060335744,0.14466800461511006,0.04772112871778438,1201.597366253278,25905.927244599265
10.21021021021021,1005.0284569594545,1002.8901239072921,0.30417887742654176,0.0,0.252458922763758,0.14434953037491435,0.04772971062956518,1201.3580967771777,25921.96054799063
10.23023023023023,1005.573115119557,1003.4228847415031,0.30527095670744875,0.0,0.2527740784158128,0.1440288590315819,0.04773837581708361,1201.1171732273147,25937.984266991414
10.25025025025025,1006.1211381542699,1003.9590955076834,0.3063704994797814,0.0,0.2530913808460395,0.14370600698191435,0.04774712416568617,1200.8746065045789,25953.998501661823
10.27027027027027,1006.6725017074135,1004.4987799918285,0.30747742928275557,0.0,0.2534108056388096,0.14338099832095821,0.04775595554913977,1200.6304128671052,25970.003351183655
10.29029029029029,1007.2271679173546,1005.0419613928074,0.30859163832271935,0.0,0.25373231864128587,0.14305386687704677,0.047764869831034604,1200.3846153450847,25985.998913561103
10.31031031031031,1007.7850817984842,1005.5886620601815,0.3097129792226647,0.0,0.2540558733971505,0.1427246587780634,0.04777386686664696,1200.1372455248443,26001.985285241713
10.33033033033033,1008.3461664658271,1006.1389134764479,0.31084125465638435,0.0,0.25438140792187025,0.14239343567610974,0.047782946505569086,1199.8883457902987,26017.962560636883
10.35035035035035,1008.9103096307068,1006.6928113009448,0.3119762046106213,0.0,0.2547088407268573,0.14206027872079835,0.04779210860112725,1199.6379720751813,26033.930831438705
10.37037037037037,1009.4773556723072,1007.2503668189163,0.3131174901855669,0.0,0.25503806578204846,0.14172529359704,0.04780135301356501,1199.3861973663438,26049.890185590204
10.39039039039039,1010.0471059535646,1007.8115708220577,0.31426467329612157,0.0,0.25536894621960377,0.14138861682490889,0.04781067960685317,1199.1331160962366,26065.840706246152
10.41041041041041,1010.6193084646986,1008.3764083097376,0.31541719226945264,0.0,0.25570130674357344,0.14105042335037085,0.04782008825488508,1198.8788494200373,26081.782470596074
10.43043043043043,1011.1936448267146,1008.9448546649267,0.3165743324890186,0.0,0.2560349244978597,0.14071093567774734,0.04782957884952948,1198.6235515639567,26097.7155483977
10.45045045045045,1011.7697149421309,1009.5168697367924,0.3177351917654043,0.0,0.25636951829395366,0.1403704346426944,0.047839151310330764,1198.3674173140657,26113.640000164545
10.47047047047047,1012.347019351028,1010.0923887919799,0.3188986406190887,0.0,0.25670473625621165,0.14002927176808933,0.04784880559594301,1198.11069060576,26129.555874951493
10.49049049049049,1012.924939714101,1010.6713089381578,0.32006327851871585,0.0,0.2570401422096123,0.13968788287812006,0.04785854171721884,1197.8536739883907,26145.46320768828
10.51051051051051,1013.5027184172556,1011.2534692935035,0.3212273884708637,0.0,0.2573752015558292,0.1393468022250734,0.04786835975160122,1197.5967384472503,26161.362016028528
10.53053053053053,1014.0794391081341,1011.8386230503206,0.32238889428741685,0.0,0.2577092679841163,0.13900667578277745,0.04787825985806258,1197.3403326478176,26177.252296716633
10.55055055055055,1014.6540110094842,1012.4263999713564,0.32354532731330476,0.0,0.25804157312798226,0.13866827159628695,0.047888242291305935,1197.084990136052,26193.134021532747
10.57057057057057,1015.2251609667917,1013.0162592022638,0.3246938120523256,0.0,0.25837122210476404,0.13833248425133726,0.04789830741334469,1196.8313324544738,26209.007132960036
10.59059059059059,1015.7914380603481,1013.6074350170535,0.3258310822213579,0.0,0.258697198526222,0.13800032987603167,0.047908455700054677,1196.5800656812225,26224.871539827895
10.61061061061061,1016.3512357335042,1014.1988823319182,0.3269535390412846,0.0,0.259018382654481,0.13767292800076514,0.04791868774007781,1196.3319678389444,26240.727113306046
10.63063063063063,1016.9028351567175,1014.7892337831324,0.3280573605193935,0.0,0.25933358542694435,0.1373514675525301,0.04792900422383887,1196.0878652801878,26256.573683732528
10.65065065065065,1017.4444705491774,1015.3767839109148,0.3291386629970121,0.0,0.25964159874527765,0.13703715658742616,0.04793940592162569,1195.8485977729213,26272.411038813076
10.67067067067067,1017.9744126062601,1015.9595156921526,0.33019370471695264,0.0,0.25994125883849767,0.1367311589492566,0.04794989365163674,1195.61497449986,26288.23892368861
10.69069069069069,1018.4910611221707,1016.5351780926545,0.3312191083356898,0.0,0.26023151551760965,0.13643452503384573,0.04796046824118706,1195.3877259588098,26304.05704320445
10.71071071071071,1018.9930470280173,1017.1013752842763,0.33221206989633884,8.301865044785407e-07,0.2605114993433094,0.1361481197033354,0.0479711308772217,1195.1674431483225,26319.865066481823
10.73073073073073,1019.4793326714386,1017.6557079023769,0.33317052052354074,4.956589468794433e-06,0.2607805740432321,0.13587256509125334,0.04798188344218926,1194.954527434687,26335.66263399524
10.75075075075075,1019.9491948889281,1018.1961012628547,0.3340932160882389,1.2476444449807143e-05,0.2610383541157885,0.13560824677815805,0.04799272660277856,1194.7492465878634,26351.449365815646
10.77077077077077,1020.4022564323659,1018.7208190767135,0.33497974535152414,2.3316862627105457e-05,0.26128471295690814,0.13535529258659595,0.0480036608389647,1194.551691589627,26367.22487007346
10.79079079079079,1020.8384728404425,1019.2285429669988,0.33583046473342676,3.739346287729637e-05,0.2615197629466171,0.13511359153033217,0.048014686514746885,1194.3617877321565,26382.988751455472
10.81081081081081,1021.2580948203866,1019.7184080397409,0.3366463804485657,5.461343096517397e-05,0.26174381875299985,0.1348828304659532,0.048025803885821394,1194.1793200246698,26398.74061898387
10.83083083083083,1021.6616170575995,1020.1899922957798,0.3374290034203725,7.487860003661043e-05,0.26195735216127336,0.1346625392178762,0.04803701311479222,1194.003964484854,26414.480092635382
10.85085085085085,1022.049722075175,1020.643272170388,0.33818020014894346,9.808830429525242e-05,0.26216094564091236,0.13445213696787156,0.04804831429057767,1193.8353203106092,26430.206808584517
10.87087087087087,1022.423225848697,1021.0785584912642,0.3389020563317717,0.00012414184766856715,0.26235524988006675,0.13425097468256803,0.048059707449106634,1193.6729393039566,26445.92042304681
10.89089089089089,1022.783029437541,1021.4964254070443,0.3395967626625267,0.00015294051529923631,0.26254094822189494,0.13405837064569132,0.04807119259316703,1193.5163505111732,26461.620614832667
10.91091091091091,1023.1300786777038,1021.8976413566525,0.3402665259930459,0.00018438912238835994,0.26271872899544335,0.13387363810269937,0.048082769710078285,1193.3650793907398,26477.307086797595
10.93093093093093,1023.4653323458906,1022.2831075026465,0.3409135048015515,0.00021839713797405092,0.2628892654132355,0.13369610534522322,0.04809443878654066,1193.2186617367606,26492.97956640179
10.95095095095095,1023.7897381948289,1022.6538060886737,0.3415397656133216,0.00025487944342640156,0.2630532019925656,0.1335251292774893,0.048106199820504875,1193.0766530815547,26508.63780558673
10.97097097097097,1024.1042157597435,1023.0107591527727,0.34214725618705705,0.0002937567924141977,0.2632111461978724,0.1333601037663692,0.04811805283021516,1192.9386344809893,26524.281580153005
10.99099099099099,1024.4096446835997,1023.3549968422386,0.34273779135579957,0.0003349560366174292,0.26336366402477723,0.13320046405350092,0.04812999786074512,1192.8042155698347,26539.91068879297
11.01101101101101,1024.706857360497,1023.6875340135373,0.34331304794654116,0.0003784101740249368,0.26351127841272515,0.13304568834166614,0.04814203498841172,1192.6730356588466,26555.5249519002
11.03103103103103,1024.9966348474263,1024.0093536402574,0.34387456589643933,0.00042405826737766563,0.2636544695889343,0.13289529745197323,0.0481541643234574,1192.5447634955,26571.12421024945
11.05105105105105,1025.2797051780212,1024.321395617811,0.34442375336528497,0.0004718452710226327,0.2637936766584555,0.13274885323643715,0.048166386011360016,1192.4190961631302,26586.70832361644
11.07107107107107,1025.5567433912217,1024.6245497265654,0.3449618942342504,0.0005217217960636457,0.26392929993886177,0.1326059562469573,0.04817870023308463,1192.2957574658021,26602.277169387624
11.09109109109109,1025.8283727456346,1024.9196517228208,0.34549015685534706,0.0005736438365997489,0.2640617036857491,0.13246624301414428,0.04819110720454142,1192.1744960438227,26617.830641194876
11.11111111111111,1026.095166721188,1025.2074817301439,0.34600960327851626,0.000627572474075482,0.2641912189680804,0.13232938317668294,0.04820360717546564,1192.0550833866064,26633.36864759854
11.13113113113113,1026.3576515138,1025.4887642835704,0.3465211984501264,0.0006834735722119031,0.2643181465355062,0.13219507661889493,0.048216200427892784,1191.9373118519966,26648.89111083387
11.15115115115115,1026.6163088094643,1025.7641695299326,0.34702581906732693,0.0007413174714641795,0.2644427595791833,0.13206305071482938,0.048228887274365397,1191.8209927600376,26664.397965629454
11.17117117117117,1026.871578685387,1026.034315209224,0.34752426190541275,0.0008010786892705547,0.26456530632896247,0.13193305773590397,0.048241668055976794,1191.7059546005507,26679.88915810206
11.19119119119119,1027.1238625316043,1026.2997691376881,0.3480172515253753,0.0008627356303442319,0.2646860124578801,0.1318048724510924,0.048254543140332944,1191.5920413744761,26695.36464472884
11.21121121121121,1027.3735259203056,1026.5610519873217,0.3485054473282059,0.0009262703097655448,0.26480508328340285,0.13167828993015684,0.04826751291949256,1191.4791110761153,26710.82439139608
11.23123123123123,1027.6209013747882,1026.8186402129388,0.34898944996034587,0.0009916680905352237,0.26492270576668747,0.13155312354863766,0.04828057780793071,1191.3670343152924,26726.26837252186
11.25125125125125,1027.8662910078194,1027.0729690205364,0.34946980709765973,0.0010589174364543017,0.26503905031829206,0.1314292031861457,0.048293738240557944,1191.2556930734777,26741.69657024943
11.27127127127127,1028.1099690119472,1027.324435302547,0.3499470186482121,0.0011280096806273046,0.2651542724228158,0.13130637360547487,0.048306994670817616,1191.1449795851588,26757.108973707276
11.29129129129129,1028.3521839933221,1027.573400489205,0.3504215414203691,0.0011989388094852944,0.2652685140969022,0.13118449299809884,0.048320347568876466,1191.0347953343974,26772.50557833177
11.31131131131131,1028.5931611468716,1027.8201932826746,0.35089379330466863,0.0012717012619503972,0.2653819051956568,0.13106343168100865,0.04833379741991796,1190.9250501561105,26787.886385248174
11.33133133133133,1028.833104274946,1028.0651122532847,0.35136415701713364,0.0013462957431806366,0.2654945645822971,0.13094307093007893,0.0483473447225431,1190.8156614317782,26803.251400705696
11.35135135135135,1029.072197654389,1028.308428286439,0.3518329834493388,0.0014227230522184896,0.26560660117513046,0.13082330193588002,0.04836098998728081,1190.706553369801,26818.600635562652
11.37137137137137,1029.3106077587938,1028.5503868753544,0.3523005946673075,0.001500985922800061,0.2657181148849521,0.13070402486885407,0.048374733735206885,1190.5976563614265,26833.934104817614
11.391391391391391,1029.5484848437468,1028.7912102594157,0.35276728659769474,0.001581088876550402,0.265829197454836,0.13058514804189586,0.048388576496669194,1190.4889064039533,26849.25182718304
11.411411411411411,1029.7859644034227,1029.03109941117,0.3532333314360035,0.0016630380877840098,0.265939933213139,0.13046658715952955,0.048402518810115466,1190.3802445837161,26864.553824697767
11.431431431431431,1030.023168507039,1029.2702358771144,0.353698979807978,0.0017468412591404487,0.2660503997494214,0.1303482646439918,0.048416561221019026,1190.2716166121454,26879.84012237516
11.451451451451451,1030.2602070236353,1029.508783478831,0.35416446271191654,0.001832507507307695,0.26616066852192943,0.13023010902958715,0.04843070428089739,1190.1629724089166,26895.110747883926
11.471471471471471,1030.4971787433713,1029.7468898818474,0.35462999326651623,0.001920047258116203,0.2662708054043124,0.13011205441765578,0.048444948546418225,1190.0542657268913,26910.365731258724
11.491491491491491,1030.7341724032174,1029.9846880400175,0.3550957682860148,0.002009472150321817,0.2663808711783619,0.12999403998537593,0.04845929457858728,1189.9454538141604,26925.605104638038
11.511511511511511,1030.971267624479,1030.2222975233478,0.3555619697018382,0.0021007949474333588,0.2664909219787658,0.12987600954242148,0.04847374294201239,1189.8364971090568,26940.828902026944
11.531531531531531,1031.2085357691751,1030.4598257371433,0.3560287658476834,0.0021940294569794726,0.266601009695158,0.12975791113019985,0.04848829420423817,1189.7273589644901,26956.03715908254
11.551551551551551,1031.4460407218103,1030.6973690401226,0.3564963126229458,0.0022891904566480505,0.26671118233612057,0.12963969665902786,0.04850294893514612,1189.618005398395,26971.229912920047
11.571571571571571,1031.6838396026517,1030.9350137688764,0.3569647545476191,0.002386293626769465,0.2668214843592347,0.12952132157915372,0.04851770770641466,1189.5084048674773,26986.407201937764
11.591591591591591,1031.921983418157,1031.1728371756747,0.35743422572022837,0.002485355488651462,0.26693195697079314,0.1294027445820233,0.048532571091034475,1189.398528061759,27001.569065659147
11.611611611611611,1032.160517653789,1031.4109082862547,0.3579048506889788,0.0025863933483086144,0.2670426383983544,0.1292839273286165,0.048547539662874124,1189.2883477177438,27016.715544590526
11.631631631631631,1032.3994828140471,1031.6492886838203,0.35837674524510316,0.002689425245162393,0.2671535641389475,0.12916483420205388,0.04856261399629167,1189.1778384482668,27031.846680092935
11.651651651651651,1032.638914914158,1031.888033225079,0.3588500171463311,0.002794469905319229,0.26726476718540193,0.12904543208200198,0.04857779466578819,1189.066976587332,27046.962514266917
11.671671671671671,1032.8788459275252,1032.12719069375,0.35932476677748454,0.00290154669906329,0.2673762782329971,0.1289256901386945,0.04859308224569903,1188.9557400484225,27062.06308984899
11.691691691691691,1033.1193041927013,1032.3668043965981,0.3598010877543965,0.0030106756022281363,0.267488125868365,0.12880557964463513,0.04860847730991944,1188.844108194965,27077.148450118795
11.711711711711711,1033.3603147833333,1032.6069127066742,0.3602790674766446,0.0031218771611369696,0.2676003367423688,0.12868507380226946,0.04862398043166092,1188.732061721764,27092.218638815808
11.731731731731731,1033.6018998442623,1032.8475495581044,0.3607587876339754,0.0032351724608249903,0.2677129357284805,0.12856414758610485,0.04863959218323537,1188.6195825463565,27107.273700064925
11.751751751751751,1033.8440788966836,1033.0887448964338,0.3612403246707547,0.0033505830962794443,0.26782594606801585,0.12844277759792472,0.048655313135864055,1188.5066537093628,27122.313678309853
11.771771771771771,1034.0868691150422,1033.33052508823,0.361723750212307,0.003468131146453358,0.2679393895034374,0.1283209419338926,0.048671143859508686,1188.3932592830045,27137.33861825378
11.791791791791791,1034.3302855781085,1033.5729132933616,0.36220913145659306,0.0035878391508279693,0.26805328640080284,0.12819862006246868,0.04868708492272215,1188.2793842870424,27152.34856480648
11.811811811811811,1034.574341496482,1033.8159298030957,0.36269653153430903,0.003709730088316308,0.2681676558623287,0.1280757927121764,0.04870313689251676,1188.1650146114855,27167.34356303733
11.831831831831831,1034.8190484185777,1034.059592346915,0.36318600984017396,0.0038338273583166573,0.26828251582993257,0.12795244176835574,0.04871930033424781,1188.0501369454691,27182.32365813364
11.851851851851851,1035.0644164169835,1034.30391637072,0.36367762233788714,0.003960154763739635,0.26839788318053387,0.12782855017812805,0.04873557581151057,1187.9347387117714,27197.288895363734
11.871871871871871,1035.3104542569115,1034.5489152888708,0.36417142184099494,0.004088736495846051,0.2685137738138145,0.1277041018628734,0.04875196388604915,1187.8188080064938,27212.23932004443
11.891891891891891,1035.557169548331,1034.7946007123255,0.3646674582716805,0.004219597120746042,0.26863020273306965,0.12757908163759138,0.048768465117675505,1187.702333543469,27227.174977512357
11.911911911911911,1035.8045688832258,1035.0409826549437,0.36516577889930085,0.004352761567421598,0.2687471841197221,0.12745347513657632,0.04878508006419719,1187.5853046030065,27242.095913098805
11.931931931931931,1036.0526579593075,1035.288069719861,0.36566642856032044,0.004488255117145334,0.26886473140201606,0.12732726874489136,0.0488018092813527,1187.4677109846255,27257.002172107746
11.951951951951951,1036.3014416913952,1035.5358692676843,0.36616944986114347,0.004626103394178493,0.2689828573183618,0.12720044953517237,0.04881865332275303,1187.3495429634515,27271.893799796642
11.971971971971971,1036.5509243115814,1035.7843875681128,0.36667488336520493,0.004766332357640444,0.26910157397575807,0.12707300520933754,0.04883561273982862,1187.2307912499828,27286.770841359874
11.991991991991991,1036.8011094591907,1036.033629936453,0.3671827677655644,0.004908968294450529,0.2692208929036807,0.1269449240448138,0.048852688081780615,1187.111446952968,27301.633341914363
12.012012012012011,1037.0520002614749,1036.2836008563859,0.367693140044135,0.0050540378132509865,0.26934082510379426,0.1268161948449263,0.0488698798955356,1186.9915015451447,27316.48134648731
12.032032032032031,1037.3035994058832,1036.5343040902148,0.36820603561858456,0.0052015678392269785,0.2694613810958107,0.12668680689312775,0.04888718872570317,1186.8709468316204,27331.31490000571
12.052052052052051,1037.5559092047013,1036.7857427777412,0.3687214884778583,0.0053515856097465465,0.2695825709597937,0.1265567499107712,0.04890461511453537,1186.749774920693,27346.134047287484
12.072072072072071,1037.808931652756,1037.037919524796,0.36923953130719345,0.005504118670749432,0.2697044043751794,0.12642601401815365,0.04892215960188791,1186.6279781969251,27360.938833034113
12.092092092092091,1038.0626684788492,1037.2908364823877,0.3697601956034266,0.005659194873819555,0.26982689065676646,0.12629458969858237,0.04893982272518202,1186.505549296298,27375.729301824507
12.112112112112111,1038.3171211915076,1037.5444954173315,0.3702835117813288,0.0058168423738811665,0.2699500387879058,0.1261624677652324,0.048957605019366975,1186.3824810832907,27390.505498110022
12.132132132132131,1038.572291119594,1037.7988977751656,0.3708095092716458,0.005977089627463592,0.2700738574511005,0.12602963933058575,0.04897550701688257,1186.258766629737,27405.267466210516
12.152152152152151,1038.8281794482748,1038.0540447360763,0.3713382166114694,0.0061399653914840395,0.2701983550562136,0.1258960957782557,0.048993529247621376,1186.1343991953293,27420.01525031126
12.172172172172171,1039.084787250799,1038.3099372645004,0.3718696615275146,0.006305498722502042,0.27032353976646256,0.1257618287370175,0.04901167223889024,1186.0093722096422,27434.74889446064
12.192192192192191,1039.3421155164945,1038.5665761530167,0.37240387101283745,0.006473718976403009,0.2704494195223692,0.12562683005687922,0.04902993651537106,1185.8836792555676,27449.468442568595
12.212212212212211,1039.6001651753618,1038.823962061079,0.37294087139748305,0.0066446558084718495,0.2705760020638172,0.12549109178703846,0.04904832259908025,1185.7573140540462,27464.173938405565
12.232232232232231,1039.8589371196083,1039.0820955491001,0.3734806884135213,0.006818339173820963,0.2707032949503604,0.12535460615558416,0.04906683100932699,1185.630270450011,27478.86542560206
12.252252252252251,1040.1184322224299,1039.340977108347,0.37402334725489106,0.006994799328139807,0.2708313055799145,0.12521736555081098,0.04908546226266994,1185.5025423994393,27493.542947648617
12.272272272272271,1040.3786513543275,1039.6006071870713,0.3745688726324427,0.007174066828736144,0.27096004120595313,0.1250793625040255,0.04910421687287226,1185.3741239574392,27508.20654789617
12.292292292292291,1040.6395953972121,1039.8609862132564,0.3751172888245416,0.007356172535841527,0.27108950895332173,0.12494058967373105,0.04912309535085491,1185.2450092672898,27522.85626955678
12.312312312312311,1040.9012652565386,1040.122114614333,0.37566861972356586,0.007541147614155993,0.2712197158327745,0.12480103983108705,0.04914209820464807,1185.1151925503605,27537.492155704636
12.332332332332332,1041.163661871669,1040.3839928341754,0.3762228888786115,0.007729023534609099,0.2713506687543309,0.12466070584654575,0.049161225939340525,1184.9846680968483,27552.11424927727
12.352352352352352,1041.4267862246736,1040.6466213476756,0.3767801195346899,0.007919832076316394,0.27148237453954155,0.12451958067757733,0.049180479057027215,1184.853430257267,27566.722593077036
12.372372372372372,1041.6906393477263,1040.9100006731467,0.3773403346686875,0.008113605328712288,0.2716148399327478,0.12437765735739954,0.04919985805675454,1184.7214734346337,27581.317229772725
12.392392392392392,1041.955222329269,1041.1741313828022,0.37790355702233247,0.00831037569384198,0.2717480716114111,0.12423492898463556,0.04921936343446375,1184.5887920772973,27595.898201901306
12.412412412412412,1042.220536319074,1041.4390141115198,0.3784698091324003,0.008510175888796594,0.2718820761955846,0.12409138871382779,0.04923899568293208,1184.455380672362,27610.465551869827
12.432432432432432,1042.4865825323418,1041.704649564087,0.3790391133583691,0.008713038948277163,0.27201686025659305,0.12394702974674233,0.04925875529171184,1184.3212337396585,27625.019321957356
12.452452452452452,1042.7533622529481,1041.9710385211044,0.3796114919077226,0.008918998227274355,0.2721524303249828,0.1238018453244022,0.04927864274706741,1184.1863458262228,27639.55955431702
12.472472472472472,1043.0208768359423,1042.238181843706,0.380186966859084,0.00912808740385209,0.2722887928977985,0.12365582871979237,0.04929865853191008,1184.050711501239,27654.086290978084
12.492492492492492,1043.2891277093956,1042.5060804772363,0.3807655601833486,0.009340340482024196,0.2724259544452395,0.12350897323118463,0.049318803125730816,1183.9143253514144,27668.599573848074
12.512512512512512,1043.5581163756813,1042.774735454022,0.381347293762974,0.009555791794714373,0.27256392141674457,0.12336127217603284,0.04933907700453086,1183.7771819767522,27683.09944471488
12.532532532532532,1043.8278444122632,1043.0441478953412,0.38193218940957036,0.009774476006790569,0.2727027002465512,0.12321271888539381,0.0493594806407505,1183.6392759866885,27697.58594524895
12.552552552552552,1044.0983134720625,1043.3143190127064,0.38252026887992774,0.00999642811816573,0.2728422973587693,0.123063306698832,0.04938001450319553,1183.5006019965663,27712.059117005392
12.572572572572572,1044.3695252834598,1043.5852501085506,0.3831115538906033,0.010221683466957674,0.2729827191720104,0.12291302895976941,0.04940067905696192,1183.3611546244197,27726.519001426117
12.592592592592592,1044.6414816499912,1043.8569425763972,0.3837060661311836,0.010450277732701518,0.2731239721036063,0.12276187901124476,0.04942147476335845,1183.220928488045,27740.965639841957
12.612612612612612,1044.914184449786,1044.1293979005936,0.38430382727632806,0.010682246939608704,0.2732660625734509,0.12260985019204947,0.049442402079827454,1183.0799182023313,27755.399073474764
12.632632632632632,1045.1876356347852,1044.4026176556722,0.3849048589966928,0.010917627459867296,0.27340899700749655,0.12245693583320923,0.04946346145986362,1182.9381183768364,27769.81934343944
12.652652652652652,1045.4618372297857,1044.6766035054013,0.3855091829688235,0.011156456016978712,0.27355278184093096,0.12230312925478375,0.049484653352931014,1182.7955236135795,27784.226490746012
12.672672672672672,1045.7367913313383,1044.9513572015726,0.3861168208841034,0.011398769689126523,0.2736974235210637,0.12214842376295816,0.04950597820437825,1182.6521285050446,27798.620556301586
12.692692692692692,1046.012500106532,1045.2268805825825,0.38672779445683114,0.011644605912573425,0.27384292850994324,0.12199281264740257,0.04952743645535196,1182.5079276323665,27813.001580912332
12.712712712712712,1046.2889657916926,1045.5031755718358,0.3873421254315014,0.011894002485082825,0.2739893032867285,0.12183628917887722,0.049549028542708484,1182.3629155636897,27827.36960528537
12.732732732732732,1046.5661906910154,1045.7802441760234,0.3879598355893535,0.012146997569361873,0.27413655434983514,0.1216788466070636,0.04957075489892393,1182.2170868526855,27841.724670030664
12.752752752752752,1046.8441771751536,1046.058088483289,0.38858094675424676,0.012403629696523172,0.2742846882188743,0.12152047815860198,0.04959261595200254,1182.0704360372163,27856.066815662853
12.772772772772772,1047.122927679781,1046.3367106613312,0.38920548079792083,0.012663937769562478,0.2744337114364022,0.121361177035319,0.04961461212538356,1181.9229576381292,27870.396082603012
12.792792792792792,1047.4024447041436,1046.6161129554473,0.38983345964468896,0.012927961066849902,0.2745836305694955,0.1212009364126289,0.04963674383784648,1181.774646158175,27884.712511180438
12.812812812812812,1047.6827308096124,1046.8962976865585,0.39046490527561395,0.01319573924563279,0.2747344522111675,0.12103974943809417,0.049659011503414785,1181.625496081038,27899.01614163431
12.832832832832834,1047.963788618251,1047.177267249218,0.39109983973220763,0.013467312345548378,0.27488618298163797,0.12087760923013227,0.04968141553125828,1181.4755018704666,27913.307014115377
12.852852852852854,1048.245620811405,1047.4590241096323,0.39173828511969433,0.013742720792144312,0.2750388295294703,0.12071450887685602,0.04970395632559396,1181.3246579695026,27927.585168687554
12.872872872872874,1048.5282301283225,1047.7415708036963,0.39238026360987444,0.014022005400405838,0.2751923985325845,0.12055044143503667,0.04972663428558546,1181.172958799793,27941.850645329512
12.892892892892894,1048.811619364814,1048.0249099350665,0.39302579744362137,0.014305207378287804,0.2753468966991594,0.12038539992917942,0.04974944980524122,1181.0203987609816,27956.103483936215
12.912912912912914,1049.0957913719556,1048.3090441732725,0.39367490893304136,0.014592368330250542,0.2755023307684305,0.12021937735070189,0.04977240327331134,1180.8669722301772,27970.343724320403
12.932932932932934,1049.3807490548397,1048.5939762518776,0.3943276204633248,0.014883530260798269,0.27565870751139515,0.12005236665720675,0.049795495073183114,1180.7126735614822,27984.571406214072
12.952952952952954,1049.6664953713785,1048.8797089666991,0.39498395449431445,0.015178735578018996,0.2758160337314293,0.11988436077184146,0.04981872558277538,1180.557497085588,27998.78656926988
12.972972972972974,1049.9530333311616,1049.1662451740874,0.3956439335618128,0.015478027097124923,0.2759743162648265,0.11971535258273702,0.04984209517443162,1180.401437109425,28012.989253062555
12.992992992992994,1050.2403659943736,1049.4535877892718,0.39630758027865,0.015781448043992348,0.27613356198126265,0.11954533494251986,0.04986560421481204,1180.2444879158622,28027.179497090234
13.013013013013014,1050.5284964707669,1049.7417397847769,0.396974917335532,0.016089042058700282,0.276293777784195,0.11937430066789086,0.04988925306478431,1180.0866437634602,28041.357340775805
13.033033033033034,1050.8174279186962,1050.0307041889096,0.3976459675016866,0.016400853199066808,0.2764549706111986,0.11920224253926587,0.049913042079313436,1179.92789888626,28055.52282346818
13.053053053053054,1051.1071635442142,1050.3204840843212,0.39832075362532154,0.01671692594418255,0.2766171474342466,0.11902915330047315,0.04993697160735039,1179.7682474936194,28069.675984443606
13.073073073073074,1051.3977066002258,1050.6110826066413,0.39899929863391115,0.017037305197940323,0.27678031525993774,0.11885502565850299,0.049961041991719884,1179.6076837700837,28083.81686290684
13.093093093093094,1051.6890603857032,1050.9025029431893,0.39968162553432374,0.01736203629256032,0.27694448112967646,0.11867985228330592,0.049985253569007036,1179.4462018752909,28097.94549799243
13.113113113113114,1051.9812282449645,1051.194748331761,0.4003677574128008,0.017691164992110035,0.27710965211980704,0.11850362580763532,0.05000960666944312,1179.2837959439094,28112.06192876585
13.133133133133134,1052.2742135670053,1051.487822059487,0.4010577174348009,0.018024737496018267,0.2772758353417078,0.11832633882693162,0.0500341016167904,1179.1204600856047,28126.16619422471
13.153153153153154,1052.568019784895,1051.781727461767,0.4017515288447151,0.01836280044258235,0.277443037941846,0.11814798389924491,0.05005873872822613,1178.9561883850367,28140.25833329987
13.173173173173174,1052.862650375226,1052.0764679212793,0.40244921496546493,0.018705400912468056,0.2776112671017973,0.11796855354519341,0.050083518314225556,1178.790974901877,28154.338384856586
13.193193193193194,1053.1581088576215,1052.372046867055,0.4031507991979899,0.019052586432201268,0.27778053003823167,0.11778804024795513,0.05010844067844422,1178.624813670856,28168.40638769562
13.213213213213214,1053.4543987942973,1052.6684677736296,0.40385630502063136,0.019404404977650818,0.2779508340028686,0.11760643645329093,0.05013350611759939,1178.4576987018295,28182.462380554316
13.233233233233234,1053.7515237896757,1052.9657341602583,0.4045657559884195,0.019760904977501558,0.2781221862824024,0.11742373456959698,0.05015871492135079,1178.289623979867,28196.506402107683
13.253253253253254,1054.0494874900562,1053.263849590199,0.40527917573226935,0.020122135316717093,0.2782945941984004,0.11723992696798452,0.050184067372180514,1178.12058346536,28210.538490969455
13.273273273273274,1054.3482935833288,1053.5628176700613,0.40599658795808974,0.020488145339991166,0.2784680651071754,0.11705500598238591,0.05020956374527229,1177.9505710941494,28224.558685693137
13.293293293293294,1054.6479457987448,1053.8626420492155,0.40671801644581146,0.020858984855187026,0.27864260639963223,0.11686896390968543,0.05023520430839005,1177.7795807776702,28238.56702477306
13.313313313313314,1054.9484479067278,1054.1633264192658,0.407443485048337,0.02123470413676382,0.2788182255010925,0.11668179300987333,0.05026098932175587,1177.607606403114,28252.56354664535
13.333333333333334,1055.2498037187372,1054.4648745135783,0.4081730176904168,0.021615353929189157,0.27899492987109553,0.11649348550622256,0.050286919037927265,1177.4346418336079,28266.54828968901
13.353353353353354,1055.552017087169,1054.7672901068697,0.40890663836745383,0.02200098545033693,0.2791727270031792,0.11630403358548676,0.0503129937016739,1177.260680908407,28280.52129222688
13.373373373373374,1055.8550919053055,1055.0705770148486,0.4096443711442407,0.022391650394869476,0.2793516244246383,0.11611342939811929,0.05033921354985375,1177.0857174431044,28294.482592526634
13.393393393393394,1056.1590321073033,1055.374739093908,0.41038624015363023,0.022787400937602988,0.2795316296962654,0.11592166505851183,0.0503655788112888,1176.909745229855,28308.432228801794
13.413413413413414,1056.4638416682228,1055.679780240872,0.4111322695951437,0.023188289736855265,0.27971275041206983,0.11572873264525256,0.050392089706640095,1176.7327580376118,28322.370239212687
