z,T,t,fs,fl,x,y,w,rhob,p
0.0,634.416791451601,505.0,0.0,0.0,0.1609076783317768,0.2369003012210384,0.047731399634512874,1268.0,14330.0
0.0333889816360601,661.4858378768997,546.5118082192788,0.00010548598280612388,0.0,0.16094040353692218,0.23686757601393074,0.04773139963140993,1267.9771897093744,14368.350372234177
0.0667779632721202,685.387552539686,582.999732788558,0.0002601689915693445,0.0,0.16098839125010922,0.2368195882835357,0.04773139960419824,1267.9437410406215,14409.007917327552
0.10016694490818029,706.5639887355355,615.201360615313,0.0004676874780344935,0.0,0.16105277015201638,0.2367552092872552,0.04773139945496204,1267.8988671611814,14451.70423816772
0.1335559265442404,725.3801436116507,643.7169386140432,0.0007293267178214687,0.0,0.16113393870258502,0.23667404036795206,0.047731398871868634,1267.842289971868,14496.198169011746
0.1669449081803005,742.1407487566138,669.041556754418,0.001044706180182941,0.0,0.16123177818526946,0.23657619976575456,0.04773139710154107,1267.7740913450666,14542.273344191923
0.20033388981636058,757.1026665401192,691.5882500343184,0.001412342920537798,0.0,0.1613458272421407,0.2364621479048517,0.04773139266742189,1267.694591142125,14589.735834014868
0.23372287145242068,770.4842132613087,711.704972867821,0.0018300724065434281,0.0,0.16147541219803424,0.23633255690381128,0.04773138310800742,1267.6042560702201,14638.411925252047
0.2671118530884808,782.4722887676494,729.6873260488395,0.0022953471568422424,0.0,0.16161973956483475,0.23618821796771725,0.04773136481305705,1267.5036350147996,14688.146077380654
0.30050083472454087,793.2279109948474,745.7882699675858,0.00280544160228805,0.0,0.16177795958476143,0.23602997783578433,0.047731333009205304,1267.3933147324894,14738.79906186813
0.333889816360601,802.8905707523862,760.2256550017352,0.0033575887540343765,0.0,0.16194920875904842,0.235858696344849,0.047731281905719486,1267.2738903780034,14790.246279664269
0.3672787979966611,811.5817003409753,773.1881417263049,0.003949068753884406,0.0,0.16213263756625929,0.23567521888756196,0.04773120497362399,1267.145946509244,14842.37624620338
0.40066777963272115,819.4074670841364,784.8399137383334,0.004577264106283623,0.0,0.16232742791656124,0.235480359186845,0.047731095307408745,1267.0100453425005,14895.089230736323
0.4340567612687813,826.461045927088,795.3244716870929,0.00523969215363009,0.0,0.16253280356696825,0.23527488912467043,0.047730946010921954,1266.8667199418305,14948.296036147402
0.46744574290484137,832.8244853086916,804.7677187612187,0.005934022197040963,0.0,0.16274803574796026,0.2350595333417766,0.047730750555290254,1266.7164707133502,15001.91690570616
0.5008347245409015,838.5702520377894,813.2804931597133,0.00665808239513302,0.0,0.162972445560931,0.23483496702526332,0.047730503071542696,1266.5597640740825,15055.880543981655
0.5342237061769616,843.7625203102448,820.9606641972417,0.007409859975248246,0.0,0.16320540422580151,0.23460181579234066,0.047730198558341874,1266.3970325203209,15110.123240139772
0.5676126878130217,848.4582549045725,827.8948806411987,0.008187497178422494,0.0,0.16344633192701322,0.23436065691980643,0.04772983300132794,1266.2286755700086,15164.588082903858
0.6010016694490817,852.7081273872097,834.1600393406255,0.008989284588628422,0.0,0.16369469577745357,0.23411202140499665,0.0477294034124502,1266.0550612268173,15219.224257504286
0.6343906510851419,856.557295745623,839.8245269715981,0.00981365296478162,0.0,0.16395000726086398,0.23385639650731302,0.047728907804554965,1265.8765277324503,15273.98641593152
0.667779632721202,860.0460714604225,844.9492762484475,0.010659164112322537,0.0,0.16421181933499276,0.23359422859929704,0.04772834511899038,1265.6933855008347,15328.83411271922
0.7011686143572621,863.2112607130974,849.5897580990573,0.01153079078690901,0.0,0.16448167457696894,0.23332397495446092,0.0477277151199668,1265.5045590937584,15383.731316240652
0.7345575959933222,866.0854243106627,853.7949887474385,0.012430623388455535,0.0,0.16476022196489673,0.2330449868770022,0.04772701825429393,1265.3095967283575,15438.64605942229
0.7679465776293822,868.6963953001444,857.6069340868426,0.01334902099252762,0.0,0.1650444715514159,0.23276025497909805,0.047726255573650664,1265.1105837354203,15493.549804018628
0.8013355592654423,871.0701236750889,861.0645915257535,0.014284998148335011,0.0,0.1653341190264257,0.23247008453646098,0.04772542860534708,1264.9077340472456,15548.41715215946
0.8347245409015025,873.2299132728338,864.2029420530301,0.01523765289253863,0.0,0.16562888629597985,0.23217475483674993,0.04772453923736216,1264.7012437408293,15603.225552574502
0.8681135225375626,875.1967098327336,867.0533943325919,0.016206163785946366,0.0,0.16592852047741052,0.23187452012319845,0.047723589621483584,1264.491291625475,15657.955007201565
0.9015025041736227,876.9893539243344,869.6441734565905,0.01718978313165052,0.0,0.16623279172141944,0.2315696117195336,0.04772258208950933,1264.2780406633017,15712.587807933556
0.9348914858096827,878.6248040617191,872.0006628817688,0.018187830696918067,0.0,0.16654149120206324,0.23126023999527412,0.04772151908253435,1264.061639288003,15767.10830035681
0.9682804674457428,880.1183340067593,874.1457060109467,0.01919968792178461,0.0,0.16685442926869834,0.23094659617689212,0.04772040309260982,1263.8422226251498,15821.502671681837
1.001669449081803,881.483707641484,876.0998728454977,0.020224792590879066,0.0,0.16717143375159252,0.23062885401241745,0.047719236615646955,1263.6199136184994,15875.758760364264
1.035058430717863,882.7333342783184,877.881696288988,0.021262633941445806,0.0,0.16749234841163982,0.23030717129821413,0.04771802211424467,1263.3948240674263,15929.865885177689
1.0684474123539232,883.8784068543474,879.5078819877903,0.02231274817891209,0.0,0.16781703152407662,0.22998169127716758,0.04771676198907693,1263.1670555809267,15983.814691735637
1.1018363939899833,884.9290251047306,880.9934950211109,0.02337471437102872,0.0,0.16814535458604335,0.22965254391760792,0.04771545855752542,1262.936700453736,16037.59701466967
1.1352253756260433,885.8943055172489,882.3521262768331,0.024448150692142165,0.0,0.16847720113809386,0.2293198470821011,0.04771411403834603,1262.703842470046,16091.205753857894
1.1686143572621035,886.7824796239771,883.5960409522384,0.025532710990224992,0.0,0.16881246569020106,0.22898370759487496,0.04771273054128694,1262.46855764015,16144.634763265363
1.2020033388981635,887.6009819786544,884.7363112853725,0.026628081650681954,0.0,0.1691510527433611,0.22864422221618058,0.04771131006071288,1262.2309148751094,16197.878751107191
1.2353923205342237,888.3565289926208,885.7829353418666,0.027733978732514278,0.0,0.1694928758985031,0.22830147853136856,0.047709854472425026,1261.9909766042817,16250.933190178632
1.2687813021702838,889.0551896527132,886.7449434441049,0.02885014535406256,0.0,0.16983785704503152,0.2279555557619207,0.04770836553299064,1261.7487993402578,16303.794237315773
1.3021702838063438,889.7024490168056,887.6304936272581,0.02997634930719263,0.0,0.17018592562193763,0.2276065255051372,0.04770684488101013,1261.5044341954658,16356.458661057191
1.335559265442404,890.3032652731449,888.4469573338456,0.031112380880394693,0.0,0.17053701794500364,0.2272544524086582,0.047705294039847926,1261.257927354399,16408.923776672586
1.368948247078464,890.8621210553105,889.2009964102231,0.03225805087280589,0.0,0.17089107659417635,0.22689939478549573,0.04770371442144008,1261.0093205051555,16461.187387809783
1.4023372287145242,891.3830696231373,889.898632340775,0.03341318878262456,0.0,0.171248049855705,0.22654140517478516,0.047702107330864524,1260.7586512336825,16513.247734088414
1.4357262103505843,891.8697764492686,890.5453085452912,0.03457764115475183,0.0,0.17160789121411682,0.22618053085302137,0.04770047397142222,1260.5059533838707,16565.103444036886
1.4691151919866443,892.3255566895234,891.1459464693928,0.03575127007377006,0.0,0.1719705588895448,0.22581681430013986,0.047698815450028645,1260.2512573863937,16616.75349283117
1.5025041736227045,892.7534089616319,891.7049961146871,0.03693395178954729,0.0,0.1723360154163257,0.2254502936244241,0.04769713278275852,1259.994590558949,16668.197164348854
1.5358931552587645,893.1560458099297,892.2264815827491,0.038125575463846754,0.0,0.17270422725915702,0.22508100294987407,0.04769542690042163,1259.735977380353,16719.43401710154
1.5692821368948247,893.5359211923897,892.7140421434609,0.03932604202732399,0.0,0.17307516446343615,0.22470897276935387,0.047693698654076744,1259.47543974073,16770.463853653062
1.6026711185308846,893.8952552901578,893.170969282566,0.0405352631372129,0.0,0.1734488003367135,0.22433423026654148,0.04769194882041369,1259.212997169859,16821.286693170798
1.6360601001669448,894.236056907943,893.6002401344612,0.04175316022683925,0.0,0.17382511115846494,0.2239567996094446,0.04769017810695336,1258.948667045559,16871.902746792977
1.669449081803005,894.5601437049665,894.004547662424,0.042979663638890504,0.0,0.17420407591565015,0.2235767022179925,0.04768838715702938,1258.682464783848,16922.3123955274
1.702838063439065,894.8691604714741,894.3863279107131,0.04421471183506347,0.0,0.1745856760617467,0.22319395700799988,0.047686576554528515,1258.41440401245,16972.51617042548
1.7362270450751252,895.1645956435359,894.7477846190218,0.045458250675359455,0.0,0.17496989529716006,0.22280858061359235,0.04768474682837528,1258.1444967291022,17022.514734801476
1.7696160267111851,895.447796229117,895.0909114596953,0.04671023276088753,0.0,0.17535671936910038,0.22242058759000038,0.047682898456754386,1257.8727534459872,17072.308868290056
1.8030050083472453,895.7199813008178,895.417512131407,0.04797061683457507,0.0,0.17574613588918714,0.22202999059845818,0.04768103187106993,1257.5991833214953,17121.899452556252
1.8363939899833055,895.9822541950205,895.7292185191951,0.04923936723467592,0.0,0.17613813416720062,0.22163680057479188,0.047679147459644654,1257.3237942804299,17171.28745849061
1.8697829716193655,896.2356135431811,896.0275071095438,0.050516453396415736,0.0,0.17653270505953986,0.22124102688314057,0.047677245571165906,1257.0465931236636,17220.473934739282
1.9031719532554257,896.4809632485117,896.3137138302322,0.05180184939752316,0.0,0.17692984083107707,0.22084267745612698,0.04767532651788715,1256.76758562817,17269.4599974338
1.9365609348914856,896.7191215101026,896.5890474677244,0.05309553354376826,0.0,0.17732953502921467,0.22044175892267695,0.0476733905785954,1256.4867766382777,17318.24682099923
1.9699499165275458,896.950828986536,896.8546017996769,0.054397487990971743,0.0,0.17773178236905768,0.22003827672458318,0.04767143800135636,1256.2041701489118,17366.83562993117
2.003338898163606,897.1767561820674,897.111366566533,0.05570769840025718,0.0,0.1781365786287123,0.21963223522280967,0.04766946900604918,1255.9197693815358,17415.227691443804
2.036727879799666,897.3975101304401,897.3602373939323,0.057026153623603554,0.0,0.17854392055380772,0.219223637794448,0.04766748378670332,1255.633576853431,17463.424308900216
2.070116861435726,897.613640444222,897.602024766673,0.05835284541701231,0.0,0.17895380577042008,0.2188124869211542,0.04766548251365006,1255.3455944409006,17511.42681594608
2.1035058430717863,897.8256447911505,897.837462145063,0.05968776817883889,0.0,0.17936623270564905,0.21839878426982312,0.04766346533550091,1255.0558234369414,17559.236571275094
2.1368948247078463,898.0339738532801,898.0672133055599,0.06103091871105316,0.0,0.17978120051516444,0.2179825307661913,0.047661432380964645,1254.764264603866,17606.85495396224
2.1702838063439063,898.239035819694,898.2918789795303,0.06238229600138773,0.0,0.18019870901709947,0.21756372666199805,0.04765938376051482,1254.4709182213255,17654.283359307323
2.2036727879799667,898.4412004591236,898.5120028566354,0.06374190102451047,0.0,0.1806187586317234,0.2171423715962802,0.047657319567918605,1254.1757841301455,17701.52319513723
2.2370617696160267,898.6408028150271,898.7280770126879,0.06510973656051809,0.0,0.18104135032637353,0.2167184646513256,0.04765523988163743,1253.8788617723415,17748.57587852057
2.2704507512520866,898.8381465624708,898.9405468157221,0.06648580702919289,0.0,0.18146648556517264,0.216292004403767,0.04765314476610954,1253.5801502276659,17795.442832853507
2.3038397328881466,899.0335070636049,899.1498153583984,0.06787011833859549,0.0,0.1818941662630975,0.21586298897125586,0.047651034272923685,1253.2796482469917,17842.125485279787
2.337228714524207,899.2271341566524,899.3562474595952,0.0692626777466821,0.0,0.18232439474399953,0.21543141605512098,0.04764890844189312,1252.977354282826,17888.62526441228
2.370617696160267,899.419254712238,899.5601732730707,0.07066349373473887,0.0,0.18275717370221026,0.2149972829793843,0.04764676730203799,1252.673266517218,17934.943598327125
2.404006677796327,899.6100749907451,899.7618915362369,0.07207257589151309,0.0,0.1831925061673915,0.2145605867264795,0.04764461087248429,1252.3673828873088,17981.08191280538
2.4373956594323873,899.7997828353659,899.9616724872673,0.07348993480699602,0.0,0.1836303954723124,0.2141213239699954,0.047642439163286976,1252.0597011087514,18027.041629800366
2.4707846410684473,899.9885497379809,900.1597604737906,0.07491558197486968,0.0,0.18407084522325362,0.21367949110474885,0.04764025217618436,1251.7502186972188,18072.82416611289
2.5041736227045073,900.1765328193461,900.3563762710817,0.07634952970266994,0.0,0.18451385927275069,0.21323508427448004,0.047638049905291115,1251.4389329882126,18118.430932259886
2.5375626043405677,900.3638767719214,900.5517191217117,0.07779179102873587,0.0,0.18495944169439446,0.21278809939745538,0.04763583233773685,1251.1258411553715,18163.863331526372
2.5709515859766277,900.5507158238543,900.7459685017516,0.07924237964500833,0.0,0.1854075967594046,0.2123385321902688,0.047633599454257644,1250.8109402274906,18209.122759194957
2.6043405676126876,900.7371757972826,900.9392856104847,0.08070130982469985,0.0,0.1858583289146784,0.21188637819014153,0.04763135122974803,1250.4942271044647,18254.210601952796
2.6377295492487476,900.9233763547204,901.1318145708585,0.08216859635377659,0.0,0.18631164276199474,0.21143163277604793,0.04762908763378198,1250.1756985723907,18299.12823748235
2.671118530884808,901.109433555846,901.3236833163048,0.08364425446506188,0.0,0.18676754303801135,0.21097429118903407,0.047626808631112315,1249.8553513180923,18343.877034250647
2.704507512520868,901.2954628859962,901.5150041262772,0.08512829977357722,0.0,0.18722603459463558,0.2105143485521563,0.0476245141821598,1249.5331819433693,18388.458351522688
2.737896494156928,901.4815829701628,901.7058737588071,0.08662074821147286,0.0,0.18768712237926896,0.21005179989054779,0.04762220424350502,1249.209186979338,18432.873539638178
2.7712854757929883,901.6679202556431,901.8963731165007,0.08812161596056393,0.0,0.18815081141432347,0.20958664015222545,0.047619878768399265,1248.8833629013018,18477.123940609454
2.8046744574290483,901.8546150359211,902.0865663793468,0.08963091938010116,0.0,0.1886171067752899,0.20911886423036868,0.047617537707313654,1248.5557061446705,18521.21088912184
2.8380634390651083,902.0418292993305,902.2764995574486,0.09114867492703305,0.0,0.1890860135665268,0.20864846698791648,0.04761518100854856,1248.2262131225366,18565.135714048978
2.8714524207011687,902.229757015683,902.4661984864936,0.09267489906582299,0.0,0.1895575368938775,0.20817544328538845,0.047612808618927346,1247.8948802455589,18608.899740634355
2.9048414023372287,902.4186376092748,902.6556664581143,0.09420960816521987,0.0,0.19003168183332664,0.20769978801273395,0.04761042048459483,1247.561703944722,18652.504293539045
2.9382303839732886,902.6087734748023,902.8448820310333,0.09575281838091962,0.0,0.19050845339537176,0.20722149612553661,0.04760801655192861,1247.2266806972113,18695.950701011607
2.9716193656093486,902.8005524056866,903.0337982388463,0.09730454552701627,0.0,0.19098785648598782,0.2067405626846819,0.04760559676853781,1246.8898070547564,18739.240300496218
3.005008347245409,902.9944755975264,903.2223455717213,0.09886480494754127,0.0,0.19146989586760862,0.20625698289600208,0.04760316108425406,1246.5510796719557,18782.374446046277
3.038397328881469,903.1911912610576,903.4104429244971,0.10043361141518471,0.0,0.19195457612833938,0.20577075214154242,0.04760070945188776,1246.2104953285914,18825.354517930526
3.071786310517529,903.3915325511069,903.5980231404571,0.10201097911098063,0.0,0.19244190167570702,0.2052818659858565,0.04759824182730031,1245.8680509340609,18868.181934765198
3.1051752921535893,903.5965562080308,903.7850822152795,0.10359692177858333,0.0,0.19293187678333928,0.20479032012844572,0.04759575816801093,1245.523743493253,18910.85816831838
3.1385642737896493,903.8075749465522,903.971761847449,0.10519145319639663,0.0,0.19342450573401423,0.20429611025814412,0.04759325842914027,1245.1775700022265,18953.384760736644
3.1719532554257093,904.026172771224,904.1584704586578,0.1067945881539425,0.0,0.19391979311560156,0.20379923175193818,0.04759074255512853,1244.829527232534,18995.76334328386
3.2053422370617692,904.254189713862,904.346034194322,0.10840634411956272,0.0,0.19441774432662492,0.20329967916049207,0.04758821046564541,1244.4796113628652,19037.995654783677
3.2387312186978297,904.493663751709,904.5358463441091,0.11002674369444751,0.0,0.1949183663202356,0.20279744545105496,0.04758566203485072,1244.1278174370004,19080.08355701615
3.2721202003338896,904.7467254726876,904.7299599557098,0.11165581772926525,0.0,0.19542166854903023,0.2022925210459118,0.04758309706494401,1243.7741386753517,19122.029043732196
3.3055091819699496,905.0154551203424,904.9310630915813,0.11329360867064053,0.0,0.19592766397938563,0.20178489278989162,0.04758051525746037,1243.418565735566,19163.834240206572
3.33889816360601,905.3017267151632,905.1423055574915,0.11494017344030116,0.0,0.19643636996372418,0.20127454306206033,0.047577916187910865,1243.0610860760166,19205.50139161708
3.37228714524207,905.6070716487283,905.3670033327193,0.11659558510252428,0.0,0.19694780874474174,0.20076144926132217,0.04757529928970504,1242.7016835864115,19247.03284074707
3.40567612687813,905.9325891069793,905.6082990010914,0.11825993281901621,0.0,0.1974620074394026,0.20024558382056895,0.0475726638512176,1242.340338595939,19288.430997756823
3.4390651085141903,906.27891536787,905.8688695536581,0.1199333200148056,0.0,0.1979789974791582,0.19972691477309062,0.04757000902627018,1241.9770282756356,19329.698306168168
3.4724540901502503,906.6462468816692,906.1507430633526,0.12161586106455864,0.0,0.19849881359976826,0.19920540677594215,0.04756733385498146,1241.6117273663785,19370.837209328398
3.5058430717863103,907.0344008336759,906.4552380382862,0.12330767698768426,0.0,0.19902149252822465,0.19868102243977143,0.047564637290251094,1241.2444091243194,19411.850120680607
3.5392320534223702,907.4428940536889,906.78300195558,0.12500889058537162,0.0,0.19954707149727155,0.19815372383169924,0.047561918225268465,1240.8750463875504,19452.739399754635
3.5726210350584306,907.8710244050498,907.1341102466429,0.12671962124059163,0.0,0.2000755866532731,0.19762347408337505,0.047559175518687276,1240.5036127143726,19493.50733446011
3.6060100166944906,908.3179444296276,907.508189617699,0.1284399793274379,0.0,0.20060707133925657,0.19709023912122298,0.047556408015634745,1240.1300836037535,19534.156129311115
3.6393989983305506,908.7827222950664,907.9045403286633,0.1301700598931761,0.0,0.20114155414821122,0.19655398962343773,0.047553614563987046,1239.7544378704526,19574.687898688764
3.672787979966611,909.2643888150509,908.3222433959195,0.13190993498932954,0.0,0.20167905655334054,0.19601470339718724,0.04755079402615627,1239.37665930982,19615.104664063045
3.706176961602671,909.7619714221927,908.7602472041547,0.1336596437055916,0.0,0.202219589822224,0.1954723684694842,0.047547945287046284,1238.9967388572286,19655.40835412027
3.739565943238731,910.2745168613387,909.2174331717852,0.13541917854978766,0.0,0.20276315079454876,0.19492698731256308,0.04754506725896916,1238.6146775359705,19695.600806869865
3.7729549248747913,910.801104491381,909.6926626303606,0.13718846625185419,0.0,0.2033097159276468,0.1943785828000179,0.0475421588842924,1238.2304906096565,19735.68377296003
3.8063439065108513,911.340851781289,910.1848078942949,0.13896734026981297,0.0,0.20385923276574247,0.19382720673822393,0.04753921913649731,1237.844213528106,19775.658919575675
3.8397328881469113,911.8929130734024,910.6927703658098,0.1407555011478934,0.0,0.20441160763874447,0.19327295216757429,0.047536247020225006,1237.4559104995299,19815.527834401353
3.8731218697829712,912.4564720721651,911.2154879251858,0.14255245932396968,0.0,0.20496668791441852,0.19271597111000444,0.047533241570797025,1237.0656868575895,19855.292029198907
3.9065108514190316,913.0307278441326,911.7519330675959,0.14435745293676583,0.0,0.20552423649258478,0.19215650007442886,0.04753020185363763,1236.6737068344473,19894.95294256935
3.9398998330550916,913.6148734077757,912.3011024012118,0.14616933069045834,0.0,0.20608389545637648,0.1915948964053099,0.04752712696400135,1236.2802188899752,19934.511941439716
3.9732888146911516,914.2080652979374,912.8619972982217,0.14798638725735674,0.0,0.20664513499588796,0.19103168935929515,0.047524016027424246,1235.8855913045272,19973.97032073881
4.006677796327212,914.8093819560913,913.433594795498,0.14980613711389495,0.0,0.2072071832275014,0.19046765028693247,0.047520868201371025,1235.4903610855483,20013.329300607635
4.040066777963272,915.4177687828872,914.0148074971064,0.15162501460275404,0.0,0.20776893312093897,0.18990388570776673,0.047517682678632746,1235.0952988280055,20052.590020353204
4.073455759599332,916.0319689269619,914.6044316967669,0.15343799827952723,0.0,0.2083288259314789,0.18934195388178693,0.04751445869311771,1234.7014899488424,20091.753528257614
4.106844741235392,916.6504426083844,915.2010850185945,0.15523818416524018,0.0,0.20888471877734316,0.18878399723764305,0.04751119552871212,1234.3104269717185,20130.82076642109
4.140233722871452,917.2712855138014,915.8031396300452,0.15701638457407147,0.0,0.20943376015312917,0.18823286686710672,0.04750789253175586,1233.9240962833492,20169.792550263763
4.173622704507513,917.8921691587689,916.4086651340426,0.15876090849104105,0.0,0.2099723217794208,0.18769219068569076,0.04750454912721616,1233.5450256335107,20208.66954343003
4.207011686143573,918.5103398632504,917.0154049887552,0.16045776073903528,0.0,0.21049606040633972,0.1871663116411128,0.04750116483768001,1233.176241077588,20247.4522308463
4.240400667779633,919.122717611775,917.6208155446919,0.16209150674346307,0.0,0.21100018615911487,0.1866600193800498,0.04749773930283438,1232.8210799905542,20286.14089533674
4.273789649415693,919.7261157248888,918.2221873284433,0.16364688465350372,0.0,0.21147996279845777,0.1861780499979809,0.04749427229561684,1232.4828424707405,20324.73560534088
4.307178631051753,920.3175510054004,918.8168384395061,0.1651108842847084,0.0,0.21193135284516126,0.18572444091993007,0.04749076373065511,1232.164341793915,20363.236220926006
4.3405676126878125,920.8945564321521,919.4023320824626,0.16647464482994362,0.0,0.21235160647181184,0.18530194200725625,0.04748721366189419,1231.8674940509695,20401.64242107889
4.3739565943238725,921.4553922134387,919.9766527116393,0.1677344802752115,0.0,0.21273957971435756,0.18491169733766827,0.04748362226928517,1231.593096404696,20439.95374845493
4.407345575959933,921.9990981452944,920.5382953639107,0.16889173792647894,0.0,0.2130956905825671,0.18455328908133323,0.047479989837544825,1231.3408576702868,20478.1696621979
4.440734557595993,922.5254052166089,921.0862647772295,0.1699517373707336,0.0,0.2134215898119834,0.18422506673335767,0.04747631673154655,1231.1096277408885,20516.28958838205
4.474123539232053,923.0345716492224,921.6200130771429,0.17092232829959983,0.0,0.21371971333639359,0.18392459462619715,0.04747260337241443,1230.8977094307033,20554.3129608684
4.507512520868113,923.5272087155874,922.1393520298903,0.1718125443917393,0.0,0.21399286456196515,0.18364906964239172,0.047468850216769096,1230.7031495480655,20592.23925005017
4.540901502504173,924.0041351211629,922.6443657908661,0.17263159693040125,0.0,0.21424390206167904,0.18339563350952945,0.047465057739965504,1230.5239565063823,20630.067980497035
4.574290484140233,924.4662718082006,923.1353365477419,0.17338824406085404,0.0,0.21447554383447465,0.18316156853291052,0.047461226423145104,1230.3582367088006,20667.79874009311
4.607679465776293,924.914573318808,923.6126859997692,0.17409046391388214,0.0,0.2146902658586371,0.18294439903599682,0.0474573567434947,1230.2042652266318,20705.43118339891
4.641068447412354,925.3499864500152,924.0769310961813,0.1747453337440042,0.0,0.21489026457584856,0.18274192887179824,0.04745344916703569,1230.0605119305485,20742.96503143522
4.674457429048414,925.7734271509877,924.5286511215717,0.17535903134965217,0.0,0.2150774573228477,0.18255224098787937,0.04744950414335498,1229.9256411805895,20780.400069425592
4.707846410684474,926.1857687652373,924.9684633329118,0.1759368999089718,0.0,0.21525350244364455,0.18237367731174461,0.04744552210181303,1229.798497803986,20817.73614348025
4.741235392320534,926.5878369709204,925.3970049162508,0.17648353954816717,0.0,0.2154198276988292,0.18220481033984245,0.047441503448878417,1229.6780872929594,20854.973156812634
4.774624373956594,926.980408508891,925.8149196083679,0.17700290484866368,0.0,0.21557766051913727,0.1820444128828592,0.04743744856632574,1229.563554718782,20892.111065826895
4.808013355592654,927.3642119615306,926.222847789956,0.17749839762217648,0.0,0.21572805679168838,0.181891429278761,0.04743335781009977,1229.4541646694724,20929.149876261094
4.841402337228715,927.739929572027,926.6214191912702,0.17797295018037543,0.0,0.21587192671610575,0.18174494953628015,0.047429231491034826,1229.349283243224,20966.089639480873
4.874791318864775,928.1082138498427,927.0112474283162,0.17842919609129018,0.0,0.21601005685220467,0.18160418728820177,0.04742510081851173,1229.2483411248832,21002.93044923016
4.908180300500835,928.4696876381578,927.3929329543994,0.1788694806810098,0.0,0.21614312749121797,0.18146846242543796,0.04742101380187414,1229.150831319662,21039.672439689406
4.941569282136895,928.8249143857371,927.7670577775367,0.1792957073314482,0.0,0.2162717309133874,0.18133718283523825,0.04741696927985024,1229.0563423860674,21076.315781615456
4.974958263772955,929.1744201759499,928.134178596312,0.17970954145899837,0.0,0.21639638576186196,0.18120983002528965,0.04741296584017177,1228.9645143258197,21112.860678918565
5.0083472454090145,929.5186963283288,928.4948259926492,0.18011244770051568,0.0,0.2165175482030784,0.181085947963795,0.04740900219932021,1228.8750305431558,21149.307365943598
5.0417362270450745,929.8582017003428,928.8495041608362,0.18050571993222117,0.0,0.21663562124905866,0.18096513375768292,0.0474050771965376,1228.7876113539814,21185.656104942667
5.075125208681135,930.193364859828,929.1986910407348,0.18089050634538523,0.0,0.21675096254586232,0.18084702986470133,0.04740118978792867,1228.7020085639801,21221.907183729447
5.108514190317195,930.5245861302201,929.5428387571266,0.18126783042614997,0.0,0.2168638908910319,0.18073131757654165,0.04739733904070299,1228.6180009324296,21258.060913503592
5.141903171953255,930.8522395130684,929.882374287147,0.1816386085468465,0.0,0.21697469169944908,0.1806177115535635,0.04739352412759385,1228.5353903687612,21294.11762683432
5.175292153589315,931.1766744934841,930.217700293804,0.18200366475583943,0.0,0.21708362159970154,0.18050595522901222,0.04738974432148071,1228.4539987349106,21330.077675792643
5.208681135225375,931.4982177342372,930.5491960761873,0.18236374324798604,0.0,0.21719091231051024,0.1803958169331706,0.04738599899023477,1228.3736651492088,21365.941430222432
5.242070116861435,931.8171746644056,930.8772185973304,0.182719518913399,0.0,0.2172967739205884,0.18028708661406798,0.047382287591799986,1228.2942437058118,21401.7092761409
5.275459098497495,932.1338309681644,931.202103558862,0.18307160629000088,0.0,0.21740139767291267,0.18017957305376325,0.04737860966951723,1228.215601539279,21437.38161425985
5.308848080133556,932.4484539787095,931.5241664980088,0.18342056718459776,0.0,0.2175049583355357,0.18007310149806702,0.04737496484769465,1228.1376171770585,21472.958858619346
5.342237061769616,932.7612939826045,931.843703888153,0.18376691718341145,0.0,0.21760761622749322,0.17996751163114982,0.04737135282742404,1228.0601791320973,21508.441435325996
5.375626043405676,933.0725854391636,932.1609942282461,0.1841111312307443,0.0,0.21770951895524418,0.17986265583959435,0.04736777338264027,1227.9831846969375,21543.829781388693
5.409015025041736,933.3825481195521,932.4762991099981,0.18445364842496967,0.0,0.21781080290594138,0.17975839771959387,0.04736422635641878,1227.9065389070379,21579.12434364481
5.442404006677796,933.6913881700175,932.7898642545566,0.18479487615442267,0.0,0.21791159453557288,0.17965461078925649,0.04736071165750437,1227.8301536468175,21614.325577770433
5.475792988313856,933.9992991033486,933.1019205125561,0.18513519367392586,0.0,0.21801201148323832,0.17955117737474988,0.04735722925706344,1227.753946876633,21649.43394736864
5.509181969949916,934.3064627228322,933.4126848234326,0.18547495520778048,0.0,0.21811216353820365,0.17944798764364397,0.04735377918565092,1227.6778419621326,21684.44992313009
5.542570951585977,934.6130499825293,933.7223611312003,0.18581449264891314,0.0,0.2182121534813685,0.17934493876381716,0.04735036153038241,1227.601767090916,21719.373982060653
5.575959933222037,934.9192217876036,934.0311412550651,0.18615411791280861,0.0,0.21831207781935116,0.17924193416972187,0.047346976432302,1227.5256547638262,21754.206606771124
5.609348914858097,935.2251297385487,934.3392057143278,0.1864941249972723,0.0,0.218412027427042,0.17913888292015914,0.04734362408393552,1227.4494413498312,21788.948284824353
5.642737896494157,935.5309168224269,934.6467245074124,0.1868347917869972,0.0,0.2185120881107307,0.179035699135458,0.04734030472701954,1227.3730666960698,21823.599508135485
5.6761268781302165,935.8367180548532,934.9538578458418,0.18717638164112876,0.0,0.21861234110367198,0.1789323015021953,0.04733701865039603,1227.2964737848035,21858.160772421346
5.7095158597662765,936.1426610756625,935.2607568440625,0.18751914479173187,0.0,0.2187128635027601,0.1788286128367864,0.047333766188062974,1227.2196084312463,21892.63257669507
5.742904841402337,936.4488667012768,935.5675641664415,0.18786331957856597,0.0,0.2188137286542085,0.17872455970005266,0.04733054771737158,1227.1424190167672,21927.015422802677
5.776293823038397,936.7554494367845,935.8744146330877,0.18820913354263868,0.0,0.2189150064952182,0.1786200720557811,0.04732736365736068,1227.064856252621,21961.309814998163
5.809682804674457,937.062517950415,936.1814357862038,0.18855680439663197,0.0,0.21901676385726204,0.17851508296765153,0.047324214467219614,1226.9868729702862,21995.516259554308
5.843071786310517,937.3701755129495,936.4887484187808,0.18890654088775458,0.0,0.2191190647358215,0.17840952832969478,0.04732110064487114,1226.9084239350516,22029.635264406214
5.876460767946577,937.6785204045761,936.796467067572,0.18925854356703134,0.0,0.21922197053093484,0.17830334662592412,0.04731802272566604,1226.8294656798207,22063.66733882514
5.909849749582637,937.987646291448,937.1047004722359,0.18961300547645554,0.0,0.21932554026211215,0.17819647871558536,0.04731498128118199,1226.7499563566657,22097.612993120205
5.943238731218697,938.2976425741999,937.4135520026175,0.18997011276474246,0.0,0.21942983076095904,0.17808886764068466,0.04731197691811911,1226.6698556038089,22131.472738365715
5.976627712854758,938.6085947104336,937.7231200560456,0.1903300452401933,0.0,0.21953489684415894,0.17798045845314464,0.04730901027728546,1226.5891244261913,22165.247086152125
6.010016694490818,938.9205845129767,938.0334984264227,0.1906929768675859,0.0,0.21964079146896906,0.1778711980594352,0.04730608203266582,1226.5077250881359,22198.936548358757
6.043405676126878,939.2336904260148,938.3447766470847,0.19105907621782867,0.0,0.21974756587394867,0.1777610350799603,0.04730319289056768,1226.4256210162137,22232.541636946535
6.076794657762938,939.5479877803584,938.6570403089146,0.19142850687317828,0.0,0.21985526970579738,0.17764991972232416,0.04730034358883847,1226.3427767117114,22266.062863769093
6.110183639398998,939.8635490299048,938.970371355643,0.19180142779666082,0.0,0.21996395113499093,0.17753780366579014,0.04729753489614888,1226.2591576708298,22299.50074040089
6.143572621035058,940.1804439704024,939.2848483577308,0.19217799366736615,0.0,0.22007365696074022,0.17742463995640667,0.047294767611336906,1226.1747303122527,22332.85577798086
6.176961602671118,940.4987399419263,939.6005467663407,0.19255835518601533,0.0,0.22018443270664467,0.17731038291143042,0.047292042562807966,1226.08946191114,22366.128487070513
6.210350584307179,940.8185020167017,939.9175391490421,0.19294265935663016,0.0,0.2202963227088557,0.17719498803123104,0.04728936060798662,1226.0033205382763,22399.319377525095
6.243739565943239,941.1397931728986,940.2358954082802,0.19333104974337195,0.0,0.22040937019646534,0.1770784119189626,0.04728672263281574,1225.9162750045864,22432.4289583771
6.277128547579299,941.4626744560961,940.5556829842103,0.1937236667094015,0.0,0.2205236173662525,0.17696061220587075,0.047284129551299105,1225.828294809531,22465.457737730863
6.310517529215359,941.7872051288674,940.8769670427695,0.19412064763608033,0.0,0.22063910545127008,0.17684154748275188,0.04728158230508402,1225.7393500937446,22498.40622266751
6.3439065108514185,942.1134428100066,941.1998106504277,0.19452212712857148,0.0,0.22075587478515732,0.1767211772356804,0.04727908186308031,1225.6494115946143,22531.274919159452
6.3772954924874785,942.4414436037505,941.5242749363703,0.1949282372059624,0.0,0.2208739648615995,0.1765994617865832,0.04727662922111274,1225.558450605196,22564.064331993643
6.4106844741235385,942.7712622202632,941.8504192433412,0.19533910748073627,0.0,0.22099341439043632,0.17647636223715923,0.04727422540160383,1225.4664389354286,22596.774964702927
6.444073455759599,943.1029520878021,942.1783012678804,0.19575486532660347,0.0,0.2211142613501162,0.17635184041644816,0.04727187145328428,1225.373348875867,22629.407319504917
6.477462437395659,943.4365654573845,942.5079771908597,0.19617563603691762,0.0,0.22123654303718968,0.17622585883135441,0.04726956845092852,1225.2791531634355,22661.961897247726
6.510851419031719,943.7721535006957,942.8395017991764,0.19660154297539753,0.0,0.22136029611338032,0.17609838061958952,0.04726731749511287,1225.1838249488528,22694.439197362135
6.544240400667779,944.109766401589,943.1729285991868,0.1970327077185102,0.0,0.2214855566500347,0.1759693695052301,0.047265119711994305,1225.0873377658475,22726.839717819705
6.577629382303839,944.4494534419384,943.5083099226889,0.1974692501918989,0.0,0.22161236017069527,0.1758387897561493,0.04726297625310746,1224.989665501662,22759.163955096334
6.611018363939899,944.7912630822173,943.8456970260053,0.19791128880070852,0.0,0.22174074169175179,0.17570660614336522,0.047260888295178057,1224.8907823688708,22791.412404140923
6.64440734557596,945.1352430372513,944.1851401827342,0.19835894055446737,0.0,0.22187073576137886,0.17557278390209907,0.04725885703995098,1224.7906628783724,22823.58555834879
6.67779632721202,945.4814403476339,944.5266887707435,0.19881232118754197,0.0,0.2220023764970773,0.1754372886942262,0.047256883714031146,1224.689281813338,22855.683909539453
6.71118530884808,945.8299014470917,944.870391353844,0.19927154527503887,0.0,0.22213569762178173,0.17530008657215687,0.04725496956873556,1224.5866142041357,22887.70794793854
6.74457429048414,946.1806722261912,945.2162957586066,0.19973672634487283,0.0,0.22227073249876036,0.17516114394392165,0.04725311587995518,1224.4826353040876,22919.658162163465
6.7779632721202,946.5337980926882,945.5644491467302,0.20020797698631693,0.0,0.22240751416540602,0.1750204275393618,0.04725132394802492,1224.377320565979,22951.535039212722
6.81135225375626,946.889324028745,945.9148980832977,0.20068540895481526,0.0,0.22254607536585266,0.17487790437749148,0.04724959509760051,1224.2706456193778,22983.339064458443
6.84474123539232,947.2472946454375,946.2676886013523,0.20116913327459035,0.0,0.22268644858289363,0.17473354173455424,0.047247930677541045,1224.1625862484227,23015.070721642107
6.878130217028381,947.6077542345317,946.6228662629666,0.20165926033731865,0.0,0.2228286660686684,0.17458730711330875,0.047246332060795655,1224.0531183704638,23046.730492873125
6.911519198664441,947.9707468179208,946.9804762171758,0.20215589999844935,0.0,0.2229727598746073,0.1744391682130532,0.04724480064429343,1223.9422180152087,23078.318858630177
6.944908180300501,948.3363161948836,947.340563255028,0.20265916167102765,0.0,0.22311876188059226,0.17428909290043015,0.04724333784883519,1223.829861304403,23109.836297765098
6.978297161936561,948.7045059872574,947.7031718619306,0.20316915441657069,0.0,0.22326670382319577,0.17413704918115153,0.04724194511898618,1223.7160244321503,23141.28328750913
7.0116861435726205,949.0753596827744,948.0683462675612,0.20368598703380425,0.0,0.223416617323249,0.1739830051723904,0.04724062392296843,1223.600683645688,23172.66030348151
7.0450751252086805,949.4489206765531,948.4361304934473,0.20420976814425326,0.0,0.22356853391242798,0.17382692907615255,0.047239375752551875,1223.4838152268437,23203.967819700076
7.0784641068447405,949.8252323110795,948.8065683985069,0.2047406062762502,0.0,0.2237224850593449,0.17366878915313977,0.047238202122943156,1223.365395473831,23235.20630859396
7.111853088480801,950.2043379145479,949.179703722568,0.20527860994567648,0.0,0.22387850219462177,0.17350855369762835,0.04723710457267105,1223.2454006837481,23266.376241018104
7.145242070116861,950.586280837854,949.5555801281132,0.2058238877348399,0.0,0.2240366167353843,0.17334619101292476,0.04723608466346767,1223.1238071354776,23297.478086269566
7.178631051752921,950.9711044902162,949.9342412403176,0.20637654836868233,0.0,0.22419686010892506,0.17318166938764823,0.04723514398014426,1223.000591073163,23328.5123121055
7.212020033388981,951.3588523735478,950.3157306855089,0.20693670078866955,0.0,0.2243592637756482,0.1730149570727308,0.047234284130460866,1222.8757286901803,23359.4793847627
7.245409015025041,951.749568115598,950.7000921281258,0.20750445422394662,0.0,0.22452385925116566,0.17284602225926154,0.0472335067449887,1222.7491961137032,23390.379768978637
7.278797996661101,952.1432955020204,951.0873693063176,0.20807991826047237,0.0,0.22469067812776866,0.17267483305695397,0.047232813476964404,1222.620969389699,23421.21392801389
7.312186978297162,952.5400785073545,951.4776060662308,0.20866320290756638,0.0,0.2248597520950982,0.17250135747341086,0.0472322060021352,1222.4910244684845,23451.98232367588
7.345575959933222,952.9399613249376,951.8708463950293,0.2092544186616971,0.0,0.2250311129599639,0.17232556339423868,0.04723168601859401,1222.3593371908735,23482.685416343895
7.378964941569282,953.3429883959268,952.2671344527986,0.20985367656836199,0.0,0.22520479266557453,0.1721474185637472,0.04723125524660353,1222.2258832747375,23513.323664995227
7.412353923205342,953.7492044373639,952.6665146033297,0.2104610882813459,0.0,0.2253808233099612,0.17196689056645406,0.047230915428408446,1222.0906383021286,23543.89752723247
7.445742904841402,954.1586544693345,953.0690314438464,0.2110767661193981,0.0,0.22555923716360524,0.17178394680938125,0.04723066832803469,1221.9535777069593,23574.407459311813
7.479131886477462,954.571383841237,953.4747298337074,0.21170082312026703,0.0,0.22574006668625382,0.1715985545051619,0.047230515731074944,1221.814676763251,23604.853916172353
7.512520868113522,954.9874382573583,953.8836549222325,0.21233337309315506,0.0,0.22592334454325358,0.1714106806556259,0.04723045944445924,1221.6739105737217,23635.237351466298
7.545909849749583,955.4068638015409,954.2958521755521,0.21297453066794025,0.0,0.22610910362088954,0.17122029203637693,0.0472305012962099,1221.5312540590705,23665.558217590038
7.579298831385643,955.8297069612416,954.7113674026713,0.21362441134303073,0.0,0.22629737704131078,0.1710273551817811,0.04723064313517969,1221.386681947556,23695.816965716072
7.612687813021703,956.2560146506993,955.1302467806128,0.21428313152972883,0.0,0.22648819817638277,0.1708318363710247,0.047230886830772305,1221.2401687653255,23726.014045825643
7.646076794657763,956.6858342335439,955.5525368788454,0.21495080859525903,0.0,0.22668160066113768,0.17063370161457203,0.04723123427264419,1221.0916888270322,23756.149906742135
7.6794657762938225,957.1192135447053,955.9782846829327,0.21562756090333254,0.0,0.2268776184064731,0.17043291664137175,0.04723168737038664,1220.9412162269805,23786.224996165118
7.7128547579298825,957.5562009115874,956.407537617403,0.21631350785183542,0.0,0.227076285610971,0.17022944688693933,0.04723224805318728,1220.788724830894,23816.23976070501
7.7462437395659425,957.9968451748832,956.8403435680727,0.2170087699101404,0.0,0.22727763677261567,0.17002325748153868,0.047232918269469924,1220.6341882677586,23846.194645918382
7.779632721202003,958.4411957085483,957.2767509035591,0.2177134686525276,0.0,0.22748170669931883,0.16981431323955254,0.047233699986511696,1220.4775799225079,23876.09009634375
7.813021702838063,958.8893024393487,957.7168084962382,0.21842772679050865,0.0,0.22768853051912105,0.16960257864917402,0.04723459519003652,1220.3188729289388,23905.926555537917
7.846410684474123,959.3412158658408,958.1605657425727,0.21915166820297796,0.0,0.2278981436897365,0.16938801786275162,0.04723560588378392,1220.1580401631006,23935.704466112802
7.879799666110183,959.7969870768679,958.6080725828817,0.21988541796459804,0.0,0.22811058200756773,0.1691705946876609,0.04723673408905209,1219.995054237055,23965.424269772673
7.913188647746243,960.2566677696022,959.0593795205758,0.22062910237251945,0.0,0.22832588161622283,0.1689502725776705,0.04723798184421426,1219.8298874930024,23995.08640735185
7.946577629382303,960.720310267,959.5145376407934,0.22138284897047547,0.0,0.2285440790142381,0.1687270146250999,0.04723935120420723,1219.6625119979649,24024.691318852747
7.979966611018363,961.1879664324148,959.9735979986006,0.22214677892432733,0.0,0.22876520868785752,0.16850078592791873,0.04724084423999624,1219.4929011923966,24054.239443480692
8.013355592654424,961.6596859122195,960.436610299491,0.22292099743511118,0.0,0.22898930013456312,0.16827155656623308,0.047242463038178084,1219.3210319632813,24083.731219490775
8.046744574290484,962.1355283689369,960.9036304282154,0.22370567408610334,0.0,0.22921640281218209,0.16803927665284865,0.04724420969993062,1219.146867269598,24113.16708452983
8.080133555926544,962.6155488148742,961.3747120945892,0.22450094085054995,0.0,0.22944655446918855,0.16780390800281098,0.04724608634054516,1218.970378196994,24142.547475676056
8.113522537562604,963.099802960072,961.8499096509702,0.22530693114449604,0.0,0.22967979327138324,0.16756541200666047,0.047248095088912444,1218.7915355129448,24171.87282937151
8.146911519198664,963.5883472297891,962.3292781127466,0.22612377983145154,0.0,0.22991615780373714,0.16732374962844915,0.04725023808681478,1218.6103096656261,24201.143581461587
8.180300500834724,964.0812387813146,962.8128731778156,0.2269516232267144,0.0,0.230155687072153,0.16707888140383512,0.04725251748818437,1218.4266707828547,24230.360167234754
8.213689482470784,964.578535520189,963.3007512451607,0.22779059910132474,0.0,0.23039842050513895,0.1668307674382621,0.047254935458326486,1218.2405886711067,24259.52302146267
8.247078464106844,965.0802961158959,963.7929694326277,0.2286408466856267,0.0,0.23064439795538602,0.16657936740522983,0.04725749417310665,1218.052032814619,24288.632578440498
8.280467445742904,965.586580017091,964.2895855939884,0.2295025066724112,0.0,0.2308936597012442,0.16632464054466245,0.04726019581810026,1217.8609723745733,24317.689272027506
8.313856427378964,966.0974474664199,964.7906583353697,0.23037572121961594,0.0,0.23114624644808923,0.16606654566138163,0.047263042587703814,1217.6673761883762,24346.693535687868
8.347245409015025,966.612959514978,965.2962470311252,0.2312606339525575,0.0,0.23140219932957434,0.16580504112369074,0.047266036684206404,1217.471212769036,24375.645802531642
8.380634390651085,967.1331780364516,965.8064118392057,0.23215738996566987,0.0,0.23166155990875958,0.1655400848620772,0.047269180316820605,1217.2724503046404,24404.54650535598
8.414023372287145,967.6581657409848,966.3212137160936,0.2330661358237257,0.0,0.23192437017911136,0.16527163436803932,0.04727247570067134,1217.0710566579453,24433.396076686426
8.447412353923205,968.1879861888053,966.8407144313479,0.23398701956251347,0.0,0.23219067256536657,0.16499964669304548,0.047275925055742095,1216.866999366076,24462.194948818425
8.480801335559265,968.7227038036399,967.3649765818084,0.23492019068894607,0.0,0.2324605099242526,0.16472407844763132,0.04727953060577699,1216.6602456403457,24490.943553858946
8.514190317195325,969.2623838859514,967.8940636054992,0.23586580018057504,0.0,0.2327339255450572,0.16444488580064315,0.04728329457713807,1216.450762366202,24519.642323768203
8.547579298831385,969.8070926260184,968.4280397952696,0.2368240004844838,0.0,0.23301096315004052,0.16416202447863434,0.0472872191976165,1216.2385161033,24548.291690401566
8.580968280467445,970.3568971168836,968.9669703122048,0.23779494551553426,0.0,0.23329166689468134,0.16387544976542204,0.047291306695196905,1216.0234730857132,24576.8920855515
8.614357262103505,970.9118653671894,969.5109211988356,0.23877879065393998,0.0,0.23357608136775088,0.16358511650181184,0.047295559296773815,1215.8055992222855,24605.44394098966
8.647746243739565,971.4720663139184,970.0599593921745,0.2397756927421383,0.0,0.2338642515912053,0.16329097908549772,0.04729997922681919,1215.5848600971287,24633.94768850908
8.681135225375625,972.0375698350558,970.6141527366009,0.24078581008093425,0.0,0.23415622301989014,0.16299299147114563,0.04730456870600028,1215.3612209702749,24662.403759966437
8.714524207011685,972.6084467621868,971.1735699966158,0.2418093024248883,0.0,0.23445204154104707,0.1626911071706684,0.047309329949746785,1215.1346467784856,24690.81258732442
8.747913188647745,973.1847688930415,971.7382808694862,0.2428463309769189,0.0,0.23475175347361596,0.1623852792537002,0.04731426516676651,1214.9051021362282,24719.17460269419
8.781302170283807,973.7666090039979,972.3083559977932,0.24389705838209078,0.0,0.235055405567323,0.16207546034827885,0.04731937655750865,1214.6725513368208,24747.490238377923
8.814691151919867,974.3540408625536,972.8838669819008,0.2449616487205585,0.0,0.2353630450015453,0.16176160264174566,0.047324666312573954,1214.436958353757,24775.759926911433
8.848080133555927,974.9471392397718,973.4648863923561,0.24604026749963523,0.0,0.23567471938394455,0.16144365788187034,0.047330136611070876,1214.1982868422142,24803.984101106882
8.881469115191987,975.5459799227099,974.051487782234,0.24713308164495337,0.0,0.23599047674885804,0.16112157737821173,0.047335789618917094,1213.9565001407502,24832.1631940956
8.914858096828047,976.1506397268357,974.6437456994329,0.2482402594906846,0.0,0.23631036555543825,0.16079531200372404,0.047341627487085515,1213.7115612732007,24860.29763937093
8.948247078464107,976.7611965084353,975.241735698934,0.24936197076878425,0.0,0.23663443468553017,0.16046481219661804,0.047347652349794316,1213.4634329507815,24888.387870831197
8.981636060100167,977.377729177013,975.845534355028,0.2504983865972225,0.0,0.23696273344127466,0.16013002796248973,0.047353866322640104,1213.2120775744024,24916.434322822774
9.015025041736227,978.0003177076873,976.4552192735149,0.25164967946716343,0.0,0.23729531154242617,0.15979090887672748,0.04736027150067378,1212.9574572372046,24944.437430183174
9.048414023372287,978.6290431535804,977.0708691038845,0.2528160232290482,0.0,0.23763221912337082,0.1594474040872112,0.04736686995641849,1212.6995337273263,24972.397628284292
9.081803005008346,979.2639876581962,977.6925635514784,0.2539975930775359,0.0,0.23797350672983122,0.1590994623173178,0.04737366373782907,1212.4382685309115,25000.31535307567
9.115191986644406,979.9052344677839,978.320383389635,0.25519456553524716,0.0,0.23831922531524008,0.15874703186924952,0.04738065486619259,1212.1736228353684,25028.191041127888
9.148580968280466,980.552867943674,978.9544104718202,0.2564071184352509,0.0,0.23866942623676426,0.15839006062770405,0.04738784533396955,1211.9055575328957,25056.025129676018
9.181969949916526,981.206973574574,979.5947277437436,0.25763543090222096,0.0,0.2390241612509568,0.15802849606390867,0.04739523710257523,1211.6340332242874,25083.818056663164
9.215358931552586,981.8676379888025,980.2414192554543,0.2588796833321772,0.0,0.23938348250900907,0.15766228524004539,0.04740283210010105,1211.3590102230362,25111.57026078407
9.248747913188648,982.5349489664288,980.8945701734133,0.26014005737070256,0.0,0.2397474425515702,0.1572913748141001,0.04741063221897545,1211.0804485597607,25139.282181528833
9.282136894824708,983.2089954512821,981.5542667925373,0.2614167358895051,0.0,0.24011609430309172,0.1569157110451781,0.047418639313564256,1210.7983079869816,25166.954259226663
9.315525876460768,983.8898675627639,982.2205965481977,0.26270990296115093,0.0,0.24048949106564327,0.15653523979933817,0.047426855197710144,1210.5125479842845,25194.586935089723
9.348914858096828,984.5776566073887,982.8936480281635,0.26401974383174437,0.0,0.2408676865121291,0.15614990655601735,0.04743528164221144,1210.2231277639223,25222.18065125701
9.382303839732888,985.272455089936,983.5735109844643,0.26534644489125814,0.0,0.24125073467881294,0.15575965641513695,0.04744392037223985,1209.9300062769112,25249.735850838304
9.415692821368948,985.9743567240588,984.2602763451455,0.26669019364111485,0.0,0.24163868995702506,0.15536443410501596,0.04745277306469746,1209.633142219718,25277.25297795813
9.449081803005008,986.6834564421268,984.9540362258764,0.26805117865847555,0.0,0.24203160708388383,0.15496418399126025,0.04746184134551298,1209.3324940416483,25304.73247779969
9.482470784641068,987.3998504039987,985.654883941355,0.2694295895564907,0.0,0.2424295411317968,0.15455885008686046,0.04747112678687758,1209.0280199530976,25332.174796648815
9.515859766277128,988.1236360042883,986.3629140164417,0.27082561693948276,0.0,0.24283254749642183,0.1541483760638194,0.04748063090442069,1208.719677934889,25359.58038193776
9.549248747913188,988.8549118775218,987.0782221969193,0.2722394523516245,0.0,0.24324068188264003,0.15373270526675623,0.04749035515432615,1208.4074257490113,25386.949682288872
9.582637729549248,989.593777900323,987.800905459757,0.27367128821709874,0.0,0.24365400028791281,0.15331178072911383,0.04750030093038972,1208.0912209511825,25414.283147557944
9.616026711185308,990.3403351894117,988.5310620226907,0.27512131776890664,0.0,0.24407255898214142,0.15288554519285294,0.04751046956101857,1207.7710209058641,25441.581228877203
9.649415692821368,991.0946860936851,989.2687913528966,0.27658973496230366,0.0,0.24449641448277712,0.15245394113288166,0.047520862306174375,1207.4467828045845,25468.844378697555
9.68280467445743,991.8569341779115,990.0141941744268,0.2780767343671516,0.0,0.24492562352340494,0.15201691078800003,0.04753148035426157,1207.1184636888117,25496.07305083003
9.71619365609349,992.6271841944972,990.7673724739883,0.2795825110310203,0.0,0.24536024301325962,0.15157439620089824,0.0475423248189634,1206.7860204791425,25523.26770048574
9.74958263772955,993.4055420382499,991.5284295044836,0.2811072603013269,0.0,0.24580032998403084,0.15112633927085278,0.04755339673602882,1206.449410013333,25550.42878431395
9.78297161936561,994.1921146767971,992.2974697855443,0.2826511775896403,0.0,0.24624594151870866,0.1506726818243687,0.04756469706001517,1206.1085890968282,25577.5567604373
9.81636060100167,994.9870100460528,993.0745991000226,0.2842144580537593,0.0,0.24669713465488288,0.15021336571135407,0.04757622666099308,1205.7635145710599,25604.652088482955
9.84974958263773,995.7903368953142,993.8599244850602,0.28579729616216065,0.0,0.24715396625148445,0.149748332937839,0.0475879863212227,1205.4141434071662,25631.71522960795
9.88313856427379,996.6022045595059,994.6535542159028,0.2873998850892514,0.0,0.24761649280293013,0.14927752585127751,0.04759997673181518,1205.060432836289,25658.746646516156
9.91652754590985,997.4227226256935,995.4555977800259,0.28902241586602645,0.0,0.24808477017722053,0.1488008874018824,0.04761219848939808,1204.7023405327514,25685.74680346311
9.94991652754591,998.2520004455766,996.2661658383713,0.29066507617552095,0.0,0.24855885324358817,0.148318361514398,0.047624652092813885,1204.3398248740316,25712.716166243492
9.98330550918197,999.0901464228368,997.0853701694915,0.2923280486302055,0.0,0.24903879533904455,0.14782989362096163,0.04763733793989278,1203.9728453127543,25739.65520215327
10.016694490818029,999.9372669702085,997.9133235911095,0.2940115082907892,0.0,0.24952464749901218,0.14733543142986957,0.047650256324361755,1203.6013629127087,25766.56437991518
10.050083472454089,1000.7934649804175,998.7501398519086,0.2957156190700715,0.0,0.250016457341201,0.14683492604109075,0.047663407432981676,1203.225341125959,25793.44416955076
10.083472454090149,1001.6588375793034,999.5959334840733,0.29744052849245856,0.0,0.2505142674380668,0.14632833357319264,0.04767679134304945,1202.8447469255177,25820.295042174166
10.116861435726209,1002.533472815954,1000.4508196037159,0.2991863600210112,0.0,0.25101811293270315,0.14581561754683312,0.04769040802047011,1202.459552464021,25847.117469671444
10.15025041736227,1003.4174447748595,1001.3149136407591,0.30095320177699075,0.0,0.25152801803266295,0.14529675239032713,0.04770425731870652,1202.0697375124907,25873.91192421113
10.18363939899833,1004.3108063414292,1002.1883309693444,0.30274108989952064,0.0,0.25204399083660317,0.1447717286124033,0.047718338979068416,1201.675293058129,25900.67887750618
10.21702838063439,1005.2135784751661,1003.0711863878494,0.3045499839355956,0.0,0.2525660156819276,0.14424056045398956,0.04773265263303375,1201.2762266254954,25927.418799708295
10.25041736227045,1006.1257342893299,1003.963593348418,0.30637973038921335,0.0,0.2530940418091656,0.14370329722330788,0.04774719780763889,1200.872570158196,25954.132157757813
10.28380634390651,1007.0471754308278,1004.8656627229674,0.3082300087326943,0.0,0.25362796657085585,0.14316004008654779,0.04776197393547842,1200.4643916930206,25980.819412927434
10.31719532554257,1007.9776971293641,1005.7775005995583,0.31010025161483873,0.0,0.25416761061367776,0.14261096688544567,0.0477769803715698,1200.0518126138854,26007.4810171734
10.35058430717863,1008.9169272801822,1006.6993143661872,0.3119895278722969,0.0,0.25471268147272813,0.14205636853986156,0.0477922164279867,1199.6350329467443,26034.117407641683
10.38397328881469,1009.8642084219769,1007.6312973691969,0.3138963730410877,0.0,0.2552627207863489,0.14149670182124646,0.04780768144468121,1199.2143679996573,26060.72899734176
10.41736227045075,1010.8185278092396,1008.5733992359417,0.3158185437536858,0.0,0.2558170279867469,0.14093266568073273,0.047823374810036734,1198.7903014881647,26087.3161618275
10.45075125208681,1011.7783880411397,1009.5254988644883,0.3177526785966287,0.0,0.2563745548405059,0.1403653067205259,0.047839296033899546,1198.3635588817392,26113.87922230861
10.48414023372287,1012.7416089836953,1010.4873256555785,0.3196938514288976,0.0,0.25693376649812677,0.13979615815443902,0.047855444873388386,1197.935204002944,26140.41842193413
10.51752921535893,1013.7050865133706,1011.4582974280072,0.3216350302931294,0.0,0.25749247318589014,0.13922740813808043,0.047871821494019036,1197.5067560515495,26166.933893121553
10.55091819699499,1014.664540628816,1012.4372223244727,0.323566520441826,0.0,0.25804765698305615,0.13866207303679132,0.04788842665481067,1197.0803100835903,26193.42561479665
10.584307178631052,1015.6143332125683,1013.4218128342089,0.32547558321628894,0.0,0.25859535335973177,0.13810411597335195,0.04790526188213665,1196.658619498994,26219.893360699534
10.617696160267112,1016.5474929912331,1014.4080340016754,0.32734655889788977,0.0,0.2591306895874841,0.13755840856392218,0.04792232956607279,1196.2450696029591,26246.336644429924
10.651085141903172,1017.456106734412,1015.3894958361793,0.32916187168741606,0.0,0.25964819769150177,0.137030418184185,0.047939632895156126,1195.8434604779843,26272.754673204017
10.684474123539232,1018.3321483969911,1016.3573289052275,0.3309040761443027,0.0,0.26014245149271353,0.13652557119490505,0.04795717557540432,1195.4575646932724,26299.14632737356
10.717863105175292,1019.1686297150461,1017.3008979229178,0.33255855044140625,1.927172668228829e-06,0.26060890982775475,0.13604839852067302,0.047974962279609734,1195.0905088275795,26325.51018143451
10.751252086811352,1019.9607497364616,1018.2094430944744,0.3341158741526699,1.2724174878461498e-05,0.26104466459461384,0.13560176939496965,0.04799299958680218,1194.744201243777,26351.844573465045
10.784641068447412,1020.706262288875,1019.0744541617868,0.3355729184306113,3.2747040901952096e-05,0.26144875003561163,0.13518665090829593,0.0480112902010111,1194.4193148139489,26378.147707302665
10.818030050083472,1021.4054318684529,1019.8905820066237,0.3369323557490459,6.159182940739486e-05,0.2618220047182626,0.13480221115425042,0.04802983563534044,1194.1152829509765,26404.417760086693
10.851419031719532,1022.0605219274923,1020.655874940676,0.3382010941750444,9.880561745174269e-05,0.26216658577086127,0.13444630043449704,0.04804863665386408,1193.830624498215,26430.65297602147
10.884808013355592,1022.675101747501,1021.3712630298508,0.3393884343075966,0.00014392246277070297,0.2624853950311846,0.13411602456493504,0.048067693509201696,1193.5633413089263,26456.85173342824
10.918196994991652,1023.2534075850913,1022.039702789791,0.34050452479294663,0.00019649108180316702,0.262781598094459,0.13380822539797407,0.0480870061967122,1193.311251474837,26483.012583346528
10.951585976627712,1023.7998625083416,1022.6653361680978,0.34155932387675025,0.0002560929937094408,0.2630583008704619,0.13351980397813745,0.04810657466769924,1193.0722133831598,26509.134264778088
10.984974958263772,1024.3187648370417,1023.2528303631013,0.34256202462125346,0.00032235249558233773,0.26331837049683193,0.1332478994676213,0.04812639898214433,1192.8442497317299,26535.215703744205
11.018363939899832,1024.8141118333028,1023.8069275564372,0.3435208101671857,0.00039494068924425063,0.2635643590374035,0.13298996538075478,0.04814647940407419,1192.6256003379988,26561.256002595284
11.051752921535893,1025.289516939164,1024.332170318885,0.34444280865295523,0.0004735756384770092,0.2637984893836927,0.13274378367751513,0.04816681645159415,1192.4147318809369,26587.2544243209
11.085141903171953,1025.7481856181128,1024.8327533050783,0.3453341528418061,0.0005580202449564763,0.2640226737975271,0.1325074462532103,0.04818741091476702,1192.2103250643959,26613.210374966024
11.118530884808013,1026.1929249701313,1025.3124577371852,0.3462000852221342,0.0006480789294067244,0.2642385466452134,0.1322793222565636,0.048208263852462914,1192.0112519809559,26639.123386008723
11.151919866444073,1026.6261710249598,1025.774636550171,0.34704507546680113,0.0007435938091949488,0.2644475010039929,0.13205802154422203,0.04822937657650984,1191.8165508176862,26664.993097711784
11.185308848080133,1027.050023901662,1026.2222285411292,0.34787293359396304,0.0008444407872071052,0.26465072394578393,0.1318423594598357,0.04825075062895853,1191.6254014942172,26690.819243932976
11.218697829716193,1027.4662851486437,1026.6577877251432,0.34868691161454957,0.0009505257862138296,0.2648492282447749,0.13163132518721754,0.04827238775632164,1191.4371037866701,26716.60163856709
11.252086811352253,1027.8764941459913,1027.0835194656443,0.34948979147613596,0.0010617812499726723,0.2650438798216535,0.13142405436271265,0.048294289883241734,1191.2510584075994,26742.34016361769
11.285475792988313,1028.2819619925085,1027.5013184205982,0.35028395957503566,0.0011781629640511442,0.26523542100544645,0.13121980586485932,0.048316459087074895,1191.0667509816249,26768.034758805632
11.318864774624373,1028.6838021962833,1027.912805520129,0.35107146917015336,0.0012996472094848836,0.2654244900257934,0.13101794236824532,0.048338897574229635,1190.8837386279777,26793.68541257876
11.352253756260433,1029.0829579924457,1028.3193625191616,0.3518540923697829,0.0014262282400897912,0.26561163725456277,0.13081791414276323,0.04836160765867922,1190.7016387888077,26819.29215437328
11.385642737896493,1029.4802263834583,1028.722163461787,0.352633363350723,0.0015579160626184394,0.2657973387127207,0.13061924558266924,0.04838459174279775,1190.5201199449807,26844.855047978195
11.419031719532553,1029.8762791326794,1029.1222028556597,0.3534106143069795,0.0016947344936740884,0.26598200730835897,0.13042152399995308,0.048407852300503866,1190.3388938963237,26870.374185863166
11.452420701168613,1030.2716809992028,1029.5203206137653,0.3541870054142615,0.0018367194657126268,0.26616600220638115,0.13022439028196817,0.04843139186259882,1190.1577093289457,26895.849684342575
11.485809682804675,1030.6669055156785,1029.9172239576426,0.3549635498849735,0.0019839175549542323,0.26634963666468475,0.130027531078927,0.04845521300413163,1189.9763464379994,26921.281679462212
11.519198664440735,1031.062348601224,1030.3135065402412,0.35574113499729637,0.002136384705615805,0.2665331846122872,0.12983067224623596,0.04847931833359882,1189.7946124155376,26946.67032350824
11.552587646076795,1031.4583402804508,1030.7096650682874,0.35652053981814064,0.0022941851269810774,0.2667168861939014,0.12963357331755293,0.04850371048377919,1189.6123376484663,26972.015782050956
11.585976627712855,1031.8551547537704,1031.1061137018419,0.3573024502034717,0.0024573903421073987,0.2669009524630518,0.12943602282682906,0.04852839210400789,1189.4293725010223,26997.318231446945
11.619365609348915,1032.2530190372574,1031.503196493715,0.3580874715481389,0.0026260783692350596,0.2670855693711492,0.12923783433223188,0.048553365853704365,1189.2455845802117,27022.577856733627
11.652754590984975,1032.6521203644315,1031.9011981102417,0.35887613966730836,0.0028003330191122265,0.26727090117188923,0.1290388430228653,0.04857863439698282,1189.0608564020542,27047.794849859147
11.686143572621035,1033.052612518326,1032.300353051445,0.35966893011926093,0.0029802432934265197,0.2674570933377948,0.12883890281171342,0.04860420039818914,1188.875083392071,27072.96940819836
11.719532554257095,1033.45462124058,1032.7008535650916,0.36046626622141115,0.00316590287132402,0.26764427506765986,0.12863788383626823,0.048630066518224775,1188.6881721659206,27098.10173331261
11.752921535893154,1033.858248845034,1033.1028564267233,0.3612685259650856,0.0033574096725970583,0.2678325614492009,0.12843567030272515,0.04865623541153273,1188.5000390460534,27123.192029916885
11.786310517529214,1034.2635781463778,1033.5064887370575,0.36207604799755977,0.0035548654875425935,0.2680220553296569,0.12823215862117338,0.04868270972363685,1188.3106087782405,27148.240505022994
11.819699499165274,1034.670675799586,1033.9118528693987,0.36288913681017604,0.00375837566474694,0.2682128489378065,0.12802725578845514,0.04870949208913819,1188.1198134181916,27173.24736723209
11.853088480801334,1035.0795951329787,1034.3190306829426,0.36370806724754123,0.003968048849155865,0.2684050252934271,0.12782087798279881,0.0487365851300857,1187.927591363615,27198.212826153413
11.886477462437394,1035.4903785465256,1034.7280871029836,0.36453308843360605,0.004183996763757531,0.268598659434213,0.12761294934031592,0.04876399145464934,1187.7338865111917,27223.137091929646
11.919866444073454,1035.9030595372994,1035.1390731559297,0.3653644271949048,0.004406334029054665,0.2687938194853146,0.1274034008882983,0.04879171365603412,1187.5386475212636,27248.020374852003
11.953255425709516,1036.3176644055525,1035.552028535511,0.36620229104862123,0.004635178015245918,0.26899056759270895,0.12719216961418556,0.04881975431158264,1187.3418271757414,27272.862885050738
11.986644407345576,1036.7342136875811,1035.966983766498,0.3670468708128399,0.00487064872268715,0.26918896073838616,0.1269791976522927,0.04884811598202156,1187.143381816965,27297.664832248684
12.020033388981636,1037.1527233552324,1036.3839620234126,0.36789834288788653,0.005112868686773408,0.2693890514526822,0.12676443157302827,0.048876801210814474,1186.9432708570298,27322.426425567584
12.053422370617696,1037.573205816416,1036.8029806540394,0.3687568712506598,0.00536196290388042,0.2695908884368949,0.1265478217615201,0.048905812523590046,1186.7414563486268,27347.147873378086
12.086811352253756,1037.9956707462356,1037.2240524508202,0.36962260919804346,0.005618058775441209,0.2697945171074971,0.1263293218743814,0.04893515242761896,1186.5379026096648,27371.829383186086
12.120200333889816,1038.4201257742584,1037.6471867073774,0.3704957008706161,0.005881286067614939,0.2699999800717305,0.12610888836487444,0.048964823411318595,1186.3325758949934,27396.47116154888
12.153589315525876,1038.8465770498556,1038.0723900923097,0.37137628258377003,0.006151776884339169,0.2702073175430754,0.12588648006801015,0.04899482794376753,1186.1254441094288,27421.073414015827
12.186978297161936,1039.2750297044781,1038.4996673679868,0.37226448398986645,0.0064296656518489734,0.27041656770399797,0.12566205783821227,0.04902516847421594,1185.9164765570215,27445.63634508891
12.220367278797996,1039.7054882270525,1038.9290219781992,0.373160429092081,0.006715089113001845,0.2706277670224427,0.1254355842331026,0.049055847431580486,1185.705643722146,27470.16015819948
12.253756260434056,1040.137956766364,1039.3604565251828,0.37406423712803744,0.007008186329970711,0.270840950527737,0.12520702323776484,0.04908686722391469,1185.492917078535,27494.645055697823
12.287145242070116,1040.5724393723015,1039.7939731536264,0.37497602333912106,0.007309098694062479,0.27105615205087863,0.12497634002453208,0.04911823023784811,1185.2782689228607,27519.091238853038
12.320534223706176,1041.0089401860978,1040.2295738567414,0.3758958996394457,0.007617969941589964,0.2712734044335786,0.12474350074394243,0.049149938837988995,1185.0616722298646,27543.49890786089
12.353923205342236,1041.4474635882088,1040.6672607172964,0.3768239751967767,0.007934946174874086,0.271492739709905,0.12450847234303092,0.04918199536628678,1184.8431005263978,27567.8682618579
12.387312186978297,1041.8880143111849,1041.1070360946153,0.37776035693625254,0.00826017588758137,0.2717141892639169,0.12427122240757976,0.049214402141351796,1184.622527782058,27592.19949894002
12.420701168614357,1042.3305975237631,1041.548902766905,0.3787051499764539,0.008593809993714339,0.27193778396627033,0.1240317190253538,0.04924716145773055,1184.3999283143633,27616.49281618483
12.454090150250417,1042.7752188914728,1041.9928640368707,0.379658458006243,0.008936001859673146,0.272163554292427,0.12378993066770004,0.04928027558513571,1184.1752767066666,27640.748409676093
12.487479131886477,1043.221884618196,1042.4389238073427,0.38062038360979394,0.009286907338888675,0.272391530424781,0.12354582608720194,0.049313746767630624,1183.948547737214,27664.96647452989
12.520868113522537,1043.6706014724386,1042.8870866326038,0.3815910285463496,0.00964668480860207,0.2726217423407413,0.12329937422935558,0.04934757722276856,1183.7197163179421,27689.14720492181
12.554257095158597,1044.1213768014477,1043.337357750201,0.3825704939904587,0.010015495208428945,0.27285421988856573,0.12305054415647845,0.04938176914068722,1183.4887574417876,27713.290794114433
12.587646076794657,1044.5742185358013,1043.7897430972398,0.3835588807377547,0.010393502080401278,0.2730889928525212,0.1227993049822786,0.04941632468315974,1183.2556461374108,27737.39743448499
12.621035058430717,1045.0291351866483,1044.2442493145243,0.3845562893807181,0.010780871610227139,0.27332609100875566,0.1225456258157024,0.049451245982602886,1183.0203574303916,27761.46731755262
12.654424040066777,1045.4861358374014,1044.7008837413027,0.3855628204583272,0.01117777266954882,0.273565544173095,0.12228947571284977,0.04948653514104412,1182.7828663100468,27785.500634005217
12.687813021702837,1045.9452301313665,1045.1596544029408,0.3865785745830098,0.011584376859014272,0.2738073822418295,0.1220308236358958,0.049522194229048785,1182.543147701142,27809.49757372554
12.721202003338897,1046.4064282565228,1045.620569993397,0.3876036525478913,0.012000858552006282,0.27405163522641746,0.12176963841809049,0.04955822528460883,1182.301176439854,27833.458325816577
12.754590984974957,1046.8697409284339,1046.083639854056,0.3886381554169478,0.012427394938898573,0.27429833328291986,0.12150588873402601,0.04959463031199468,1182.0569272534192,27857.38307862597
12.787979966611017,1047.3351793720858,1046.5488739501632,0.3896821846003442,0.012864166071729096,0.27454750673687234,0.12123954307446576,0.049631411280571795,1181.8103747429802,27881.272019769654
12.821368948247077,1047.8027553032764,1047.016282845882,0.39073584191693944,0.013311354909198358,0.2747991861042103,0.12097056972511974,0.04966857012358326,1181.5614933692011,27905.12533615442
12.854757929883139,1048.27248091006,1047.4858776787573,0.39179922964568276,0.013769147361915262,0.27505340210878065,0.12069893674883322,0.04970610873690013,1181.3102574402853,27928.943213999668
12.888146911519199,1048.744368834622,1047.9576701342273,0.3928724505673928,0.014237732337824976,0.2753101856969048,0.1204246119707259,0.049744028977740835,1181.0566411020684,27952.725838858238
12.921535893155259,1049.2184321558832,1048.4316724206658,0.3939556079982149,0.014717301787763723,0.27556956804939126,0.12014756296588162,0.04978233266336127,1180.8006183299103,27976.473395636327
12.954924874791319,1049.694684373044,1048.9078972453217,0.3950488058158695,0.015208050751092566,0.27583158059134355,0.11986775704924386,0.049821021569716566,1180.542162922149,28000.186068612642
12.988313856427379,1050.173139390227,1049.3863577914296,0.3961521484796544,0.015710177401369443,0.27609625500006174,0.11958516126742008,0.049860097430096506,1180.2812484949006,28023.86404145672
13.021702838063439,1050.6538115023154,1049.8670676966842,0.39726574104502527,0.016223883092023276,0.27636362321129065,0.11929974239214004,0.04989956193373529,1180.0178484780404,28047.507497246566
13.055091819699499,1051.136715382058,1050.3500410332042,0.3983896891734625,0.016749372401997788,0.27663371742403275,0.11901146691515023,0.04993941672439741,1179.7519361121983,28071.11661848558
13.088480801335558,1051.621866068466,1050.8352922890651,0.3995240991382278,0.017286853181335514,0.2769065701041138,0.11872030104435821,0.049979663398940506,1179.4834844466493,28094.691587118872
13.121869782971618,1052.1092789565137,1051.3228363514388,0.400669077826526,0.017836536596674144,0.2771822139866574,0.11842621070106865,0.05002030350585668,1179.212466337982,28118.232584549027
13.155258764607678,1052.5989697881223,1051.8126884913415,0.4018247327385085,0.018398637176628724,0.2774606820776029,0.11812916151817708,0.05006133854379329,1178.938854449454,28141.739791651326
13.188647746243738,1053.0909546444068,1052.304864349974,0.40299117198348805,0.018973372857033367,0.27774200765438084,0.117829118839208,0.050102769960054444,1178.6626212509534,28165.213388788517
13.222036727879798,1053.585249939146,1052.799379926611,0.40416850427367634,0.019560965026016314,0.2780262242658395,0.11752604771810235,0.05014459914908429,1178.3837390194988,28188.65355582518
13.255425709515858,1054.0818724134263,1053.2962515679951,0.40535683891570584,0.020161638568881497,0.2783133657315031,0.11721991291967475,0.0501868274509332,1178.102179840223,28212.060472141733
13.28881469115192,1054.5808391314117,1053.7954959591698,0.4065562858001546,0.02077562191276895,0.27860346614022674,0.11691067892067451,0.05022945614970794,1177.8179156077917,28235.434316648058
13.32220367278798,1055.082167477188,1054.297130115682,0.4077669553892524,0.02140314707106471,0.27889655984830425,0.1165983099113957,0.050272486472007,1177.530918028222,28258.775267796937
13.35559265442404,1055.5858751526207,1054.8011713770932,0.4089889587029218,0.02204444968753035,0.27919268147707144,0.11628276979779148,0.050315919585342,1177.2411586210621,28282.083503597176
13.3889816360601,1056.0919801761784,1055.3076374017157,0.41022240730327275,0.022699769080118986,0.27949186591004266,0.11596402220405663,0.05035975659654632,1176.9486087219148,28305.35920162658
13.42237061769616,1056.6005008826628,1055.8165461625103,0.41146741327765135,0.023369348284443946,0.2797941482896096,0.11564203047564905,0.05040399855017213,1176.6532394852786,28328.602539044703
13.45575959933222,1057.1114559237958,1056.3279159440724,0.412724089220322,0.024053434096863495,0.2800995640133245,0.11531675768272728,0.050448646426876576,1176.3550218876865,28351.813692605523
13.48914858096828,1057.6248642696116,1056.841765340635,0.41399254821284565,0.024752277117142705,0.280408148729786,0.11498816662398625,0.050493701141798665,1176.05392673114,28374.992838669998
13.52253756260434,1058.1407452106075,1057.3581132550307,0.4152729038032028,0.025466131790651363,0.2807199383341414,0.11465621983087806,0.05053916354292738,1175.7499246468185,28398.1401532185
13.5559265442404,1058.6591183606083,1057.8769788985433,0.4165652699836983,0.02619525645005405,0.28103496896321484,0.11432087957220793,0.050585034409462666,1175.4429860990583,28421.255811863273
13.58931552587646,1059.180003660305,1058.3983817915948,0.417869761167674,0.026939913356445914,0.28135327699026685,0.11398210785909912,0.05063131445016989,1175.1330813896045,28444.33998986083
13.62270450751252,1059.7034213814202,1058.922341765213,0.41918649216504883,0.027700368739885083,0.2816748990193922,0.11363986645032262,0.05067800430172934,1174.820180662119,28467.392862124336
13.65609348914858,1060.229392131476,1059.4488789632292,0.4205155781566968,0.02847689283926961,0.2819998718795536,0.1132941168579902,0.050725104527081476,1174.5042539069568,28490.41460323603
13.68948247078464,1060.7579368591225,1059.9780138451565,0.42185713466766883,0.029269759941503982,0.28232823261825557,0.11294482035361109,0.05077261561376943,1174.185270966198,28513.405387459694
13.722871452420701,1061.2890768599989,1060.509767189711,0.4232112775392601,0.030079248419897644,0.2826600184948535,0.1125919379745136,0.050820537972279686,1173.863201538947,28536.365388753184
13.756260434056761,1061.8228337830992,1061.0441600989307,0.42457812289991775,0.030905640771734078,0.28299526697349764,0.11223543053063524,0.050868871934382165,1173.5380151868915,28559.29478078097
13.789649415692821,1062.3592296376196,1061.5812140028613,0.4259577871349863,0.03174922365494726,0.28333401571570604,0.1118752586116849,0.050917617751471064,1173.2096813401315,28582.19373692688
13.823038397328881,1062.8982868002565,1062.120950664772,0.4273503868552774,0.03261028792383751,0.2836763025725639,0.11151138259468227,0.05096677559290742,1172.8781693032736,28605.06243030686
13.856427378964941,1063.4400280229447,1062.6633921868754,0.4287560388644565,0.033489128663756806,0.2840221655765419,0.11114376265187999,0.05101634554436482,1172.5434482618025,28627.901033781876
13.889816360601001,1063.9844764410059,1063.2085610165175,0.43017486012523243,0.03438604522469091,0.28437164293293,0.1107723587590747,0.05106632760617942,1172.2054872887268,28650.70971997098
13.923205342237061,1064.5316555816971,1063.7564799528252,0.43160696772433627,0.03530134125365974,0.2847247730108777,0.11039713070431367,0.051116721691705544,1171.8642553515056,28673.488661264473
13.956594323873121,1065.081589373139,1064.3071721537758,0.43305247883627357,0.03623532472585416,0.2850815943340369,0.11001803809700388,0.05116752762567827,1171.5197213192646,28696.238029837285
13.989983305509181,1065.6343021536113,1064.8606611436771,0.4345115106858371,0.0371883079744282,0.2854421455707981,0.1096350403774309,0.051218745142584156,1171.1718539702988,28718.957997662448
14.023372287145241,1066.1898186811982,1065.416970821037,0.43598418050936116,0.038160607718858555,0.28580646552411515,0.10924809682669472,0.05127037388504154,1170.8206219998724,28741.64873652481
14.056761268781301,1066.7481641437778,1065.9761254668078,0.4374706055147036,0.03915254509177976,0.2861745931209088,0.10885716657707051,0.05132241340219165,1170.4659940283207,28764.310418034926
14.090150250417361,1067.3093641693356,1066.5381497529866,0.4389709028399375,0.04016444566420069,0.28654656740104506,0.10846220862280136,0.051374863148101954,1170.1079386094582,28786.943213643095
14.123539232053421,1067.8734448365979,1067.103068751562,0.44048518951073745,0.0411966394690036,0.28692242750587776,0.10806318183133139,0.051427722480183166,1169.746424239294,28809.547294653683
14.156928213689481,1068.4404326859692,1067.6709079437917,0.442013582396444,0.04224946102262353,0.2873022126663511,0.1076600449549863,0.05148099065762115,1169.3814193650694,28832.1228322396
14.190317195325543,1069.0103547307701,1068.2416932298017,0.44355619816479036,0.04332324934480202,0.2876859621906527,0.10725275664310926,0.05153466683982525,1169.0128923946145,28854.66999745701
14.223706176961603,1069.583238468758,1068.8154509384942,0.445113153235276,0.044418347976304486,0.2880737154514121,0.1068412754546599,0.051588750084894365,1168.6408117060296,28877.18896126029
14.257095158597663,1070.159111893929,1069.3922078377557,0.4466845637311728,0.04553510499448812,0.2884655118724358,0.10642555987128345,0.05164323934810227,1168.2651456577066,28899.679894517223
14.290484140233723,1070.7380035085857,1069.9719911449527,0.4482705454301485,0.04667387302660076,0.2888613909149742,0.10600556831085761,0.05169813348040348,1167.8858625986782,28922.14296802439
14.323873121869783,1071.3199423356652,1070.5548285377104,0.4498712137134945,0.047835009260689385,0.289261392063512,0.10558125914152465,0.05175343122696125,1167.5029308793185,28944.578352522887
14.357262103505843,1071.9049579313191,1071.140748164963,0.45148668351394566,0.04901887545399098,0.28966555481107664,0.10515259069621509,0.05180913122569892,1167.1163188623873,28966.98621871422
14.390651085141902,1072.4930803977286,1071.729778658263,0.4531170692620775,0.050225837938675084,0.29007391864405857,0.10471952128767056,0.05186523200587633,1166.725994934427,28989.366737276516
14.424040066777962,1073.0843403961564,1072.3219491433501,0.4547624848312728,0.05145626762480259,0.29048652302653716,0.10428200922397204,0.05192173198669238,1166.3319275175209,29011.72007888096
14.457429048414022,1073.6787691602144,1072.9172892519587,0.45642304348124446,0.05271054000036119,0.29090340738410625,0.10384001282457972,0.051978629475915535,1165.934085081409,29034.046414208566
14.490818030050082,1074.2763985093436,1073.515829133867,0.4580988578001069,0.053989035128233026,0.2913246110871955,0.1033934904368914,0.05203592266854334,1165.5324361559772,29056.345913967114
14.524207011686142,1074.8772608624938,1074.1175994691714,0.4597900396449863,0.05529213763994603,0.29175017343387954,0.10294240045332444,0.052093609645492686,1165.126949344113,29078.618748908484
14.557595993322202,1075.4813892519883,1074.722631480775,0.4614967000811631,0.056620236726055324,0.2921801336321737,0.1024867013289273,0.05215168837232202,1164.7175933349404,29100.865089846196
14.590984974958262,1076.0888173375656,1075.3309569470896,0.46321894931974056,0.05797372612299677,0.2926145307818086,0.1020263515995261,0.05221015669798689,1164.304336917435,29123.08510767326
14.624373956594324,1076.6995794205832,1075.9426082149291,0.46495689665383383,0.05935300409625007,0.2930534038554822,0.10156130990041072,0.052269012353630344,1163.8871489944227,29145.278973380333
14.657762938230384,1077.3137104583689,1076.5576182125926,0.466710650393276,0.06075847341964324,0.2934967916795834,0.10109153498556554,0.05232825295140942,1163.4659985969695,29167.44685807412
14.691151919866444,1077.9312460787078,1077.1760204631216,0.46848031779783905,0.062190541350627564,0.29394473291438594,0.10061698574744862,0.052387875983359165,1163.040854899159,29189.58893299611
14.724540901502504,1078.5522225944467,1077.797849097717,0.47026600500896737,0.06364961960134431,0.2943972660337074,0.10013762123732359,0.05244787882029534,1162.611687233272,29211.705369541625
14.757929883138564,1079.1766770181994,1078.4231388693083,0.47206781698002576,0.0651361243053023,0.2948544293040335,0.09965340068614742,0.052508258710757275,1162.178465105357,29233.79633927908
14.791318864774624,1079.8046470771399,1079.0519251662586,0.47388585740506134,0.06665047597947946,0.29531626076310336,0.09916428352601737,0.052569012779992014,1161.7411582112127,29255.862013969632
14.824707846410684,1080.4361712278592,1079.684244026185,0.47572022864608576,0.06819309948165622,0.29578279819795555,0.0986702294121795,0.052630138028981074,1161.299736452766,29277.90256558707
14.858096828046744,1081.0712886712688,1080.320132149891,0.47757103165887854,0.06976442396278476,0.2962540791224336,0.09817119824560104,0.05269163133351091,1160.8541699548655,29299.918166338037
14.891485809682804,1081.710039367531,1080.959626915383,0.47943836591732175,0.07136488281419241,0.29673014075415016,0.09766715019610828,0.05275348944328829,1160.4044290824788,29321.908988682502
14.924874791318864,1082.3524640509913,1081.602766391957,0.4813223293362709,0.07299491360941308,0.2972110199909102,0.09715804572609105,0.05281570898110171,1159.950484458308,29343.875205354572
14.958263772954924,1082.9986042450923,1082.249589354337,0.4832230181929735,0.07465495804043562,0.2976967533865936,0.09664384561477476,0.052878286442029895,1159.4923069808117,29365.81698938356
14.991652754590984,1083.6485022772417,1082.9001352968485,0.48514052704704624,0.0763454618481536,0.29818737712649845,0.09612451098305977,0.052941218192698467,1159.0298678426514,29387.734514115364
15.025041736227044,1084.302201293609,1083.5544444475945,0.4870749486590245,0.07806687474679562,0.2986829270021463,0.09560000331892786,0.05300450047058556,1158.563138549548,29409.627953234107
15.058430717863104,1084.9597452738271,1084.2125577826253,0.4890263739074975,0.07981965034211116,0.29918343838555256,0.09507028450341502,0.053068129383377585,1158.0920909395593,29431.497480784095
15.091819699499165,1085.621179045561,1084.874517040068,0.49099489170484845,0.0816042460430828,0.29968894620296366,0.09453531683714865,0.053132100908375814,1157.6166972027745,29453.343271191974
15.125208681135225,1086.2865482989237,1085.5403647341957,0.4929805889116169,0.0834211229669295,0.300199484908066,0.0939950630674475,0.0531964108919546,1157.1369299014286,29475.165499289247
15.158597662771285,1086.955899600697,1086.2101441694035,0.49498355024950447,0.0852707458371644,0.30071508845466993,0.09344948641598087,0.053261055049072074,1156.652761990436,29496.964340334984
15.191986644407345,1087.6292804083307,1086.883899454072,0.49700385821304655,0.08715358287446263,0.30123579026887354,0.0928985506069847,0.05332602896283392,1156.16416683834,29518.73997003881
15.225375626043405,1088.3067390836823,1087.5616755142782,0.4990415929799756,0.08907010568009377,0.3017616232207127,0.09234221989602964,0.05339132808411083,1155.671118248685,29540.492564584132
15.258764607679465,1088.988324906454,1088.24351810733,0.501096832320301,0.09102078911166842,0.3022926195953028,0.0917804590993369,0.05345694773121022,1155.1735904817995,29562.22230065161
15.292153589315525,1089.6740880873022,1088.9294738350861,0.503169651504137,0.09300611115094433,0.3028288110634792,0.0912132336236365,0.05352288308960271,1154.671558277,29583.929355442833
15.325542570951585,1090.36407978056,1089.6195901570286,0.5052601232083074,0.09502655276343566,0.30337022865194435,0.09064050949656162,0.053589129211703584,1154.164996875205,29605.613906704217
15.358931552587645,1091.0583520965486,1090.3139154030507,0.5073683174217603,0.09708259774956407,0.30391690271293015,0.09006225339757287,0.053655681016709846,1153.6538820419603,29627.276132751085
15.392320534223705,1091.7569581134164,1091.0124987859213,0.5094943013498304,0.099174732587089,0.3044688628933839,0.08947843268940443,0.05372253329049278,1153.1381900908766,29648.91621249198
15.425709515859765,1092.4599518884727,1091.715390413384,0.5116381393173826,0.10130344626455164,0.30502613810368784,0.08888901545002466,0.05378968068554634,1152.6178979074696,29670.534325453074
15.459098497495825,1093.1673884689594,1092.4226412998553,0.5137998926708789,0.10346923010546384,0.3055887564859241,0.0882939705051018,0.05385711772099146,1152.092982973402,29692.130651802792
15.492487479131885,1093.879323902213,1093.134303377664,0.5159796196794111,0.10567257758297219,0.3061567453816949,0.08769326746096504,0.053924838782636215,1151.5634233911298,29713.705372376535
15.525876460767947,1094.5958152451649,1093.850429507802,0.5181773754347416,0.10791398412472776,0.3067301312995115,0.08708687673805088,0.05399283812309177,1151.0291979089345,29735.258668701525
15.559265442404007,1095.3169205731253,1094.5710734901243,0.5203932117503977,0.11019394690768897,0.30730893988176367,0.08647476960482413,0.05406110986194376,1150.4902859463518,29756.79072302176
15.592654424040067,1096.042698987794,1095.2962900729585,0.522627177059869,0.11251296464258695,0.30789319587128366,0.08585691821216075,0.054129647985979065,1149.9466676199818,29778.301718323022
15.626043405676127,1096.7732106244437,1096.0261349620646,0.5248793163139577,0.1148715373477796,0.3084829230775201,0.08523329562818124,0.05419844634946738,1149.398323769679,29799.791838357967
15.659432387312187,1097.5085166582064,1096.7606648288943,0.527149670877334,0.11727016611222466,0.3090781443423357,0.08460387587351995,0.054267498674497185,1148.845235985116,29821.26126767118
15.692821368948247,1098.248679309413,1097.4999373180945,0.5294382784243522,0.11970935284730214,0.3096788815054459,0.08396863395701704,0.05433679855136559,1148.2873866327109,29842.7101916243
15.726210350584306,1098.993761847912,1098.2440110541895,0.5317451728341818,0.12218960002721878,0.31028515536951445,0.08332754591181805,0.054406339439021345,1147.7247588829182,29864.13879642109
15.759599332220366,1099.743828596306,1098.9929456473947,0.5340703840853166,0.1247114104177298,0.31089698566492446,0.08268058883186512,0.05447611466556021,1147.1573367378696,29885.547269132436
15.792988313856426,1100.4989449320383,1099.7468016984858,0.5364139381495179,0.12727528679291775,0.3115143910142422,0.08202774090876389,0.054546117428771954,1146.5851050593571,29906.935797721242
15.826377295492486,1101.2591772882545,1100.5056408026658,0.5387758568852575,0.12988173163977157,0.3121373888963946,0.08136898146900857,0.054616340796737856,1146.0080495971556,29928.3045710673
15.859766277128546,1102.0245931533777,1101.2695255523656,0.5411561579307252,0.132531246850316,0.31276599561057766,0.08070429101154741,0.05468677770847786,1145.4261570176698,29949.653778991862
15.893155258764606,1102.7952610693112,1102.0385195389026,0.5435548545964664,0.1352243334010456,0.31340022623991937,0.08003365124566986,0.054757420974646046,1144.8394149328983,29970.98361228216
15.926544240400666,1103.5712506282025,1102.812687352932,0.5459719557577182,0.13796149101942776,0.3140400946149165,0.07935704512919577,0.05482826327827328,1144.247811929707,29992.2942627156
15.959933222036726,1104.3526078430025,1103.592035865196,0.5484072920878424,0.14074350384794126,0.31468556265735037,0.07867450726738534,0.054899298489286076,1143.6513710117767,30013.58903784663
15.993322203672788,1105.1393379460349,1104.3764528575186,0.5508602464958917,0.14357187064849128,0.31533646156943124,0.07798620238670671,0.05497052382476841,1143.0502017081792,30034.879075590525
16.026711185308848,1105.9315473654544,1105.1660440488363,0.5533307446741902,0.1464471716764596,0.3159927804985917,0.07729213814889542,0.055041932390067404,1142.4443095149695,30056.165557106822
16.060100166944906,1106.7293483865997,1105.960930720202,0.5558187646246255,0.14936989203280737,0.3166545238181665,0.07659230706062632,0.05511351675746384,1141.8336899831868,30077.448638160546
16.093489148580968,1107.5328504214274,1106.7612295423562,0.558324279585055,0.15234051569893356,0.3173216945003708,0.07588670301584576,0.05518526939132758,1141.2183396998257,30098.728477336055
16.126878130217026,1108.3421604728185,1107.5670532521717,0.5608472579500708,0.15535952498143263,0.31799429409037017,0.07517532132549215,0.05525718264840188,1140.5982563158532,30120.00523594632
16.160267111853088,1109.1573835396969,1108.3785112455205,0.5633876631908193,0.15842739996120006,0.3186723226796639,0.07445815874778643,0.05532924877819394,1139.9734385742693,30141.27907795603
16.193656093489146,1109.9786229696613,1109.195710096186,0.5659454537741175,0.1615446179446483,0.31935577887889316,0.0737352135190054,0.05540145992345902,1139.3438863382091,30162.550169916678
16.227045075125208,1110.8059807650102,1110.018754009281,0.5685205830811005,0.16471165291504153,0.32004465979017843,0.07300648538465666,0.05547380812076823,1138.7096006190827,30183.818680912136
16.26043405676127,1111.639557847357,1110.8477452166412,0.5711129993255976,0.16792897498214468,0.3207389609790779,0.07227197563098499,0.055546285301149634,1138.0705836047562,30205.08478251323
16.293823038397328,1112.4794542853824,1111.6827843207539,0.5737226454724289,0.17119704982858724,0.3214386764462507,0.0715316871167432,0.05561888329079427,1137.426838687764,30226.3486487402
16.32721202003339,1113.3257694897397,1112.523970593004,0.576349459155793,0.1745163381515016,0.32214379859890147,0.07078562430516916,0.05569159381181887,1136.7783704935548,30247.610456031878
16.360601001669448,1114.1786023786276,1113.3714022313145,0.5789933725978936,0.1778872950981517,0.322854318222075,0.07003379329611502,0.055764408483077926,1136.1251849087685,30268.870383220576
16.39398998330551,1115.0380515171241,1114.2251765816518,0.5816543125279612,0.18131036969442277,0.3235702244498655,0.06927620185827629,0.05583731882101862,1135.4672891095336,30290.12861151188
16.427378964941568,1115.9042152329946,1115.0853903273173,0.5843322001017918,0.18478600426515476,0.3242915047365977,0.06851285946147756,0.055910316240571835,1134.8046915897883,30311.385324468574
16.46076794657763,1116.7771917113491,1115.9521396494788,0.5870269508219336,0.18831463384544672,0.32501814482803654,0.06774377730896794,0.05598339205607419,1134.1374021896136,30332.640707997976
16.494156928213688,1117.6570790702335,1116.8255203619576,0.5897384744586315,0.19189668558214737,0.3257501287326728,0.06696896836968903,0.056056537482214966,1133.465432123577,30353.89495034202
16.52754590984975,1118.54397541898,1117.7056280229306,0.5924666749716415,0.195532578124879,0.32648743869313523,0.06618844741047403,0.056129743635003664,1132.7887940090782,30375.148242069645
16.560934891485807,1119.437978900906,1118.5925580258684,0.5952114504330125,0.1992227210060141,0.3272300551577709,0.0654022310281444,0.056203001532752754,1132.1075018946879,30396.400776070877
16.59432387312187,1120.3391877217648,1119.4864056717483,0.5979726929509345,0.20296751400914304,0.32797795675243774,0.06461033768146628,0.05627630209707172,1131.4215712884745,30417.65274755221
16.627712854757927,1121.2477001651491,1120.387266224318,0.6007502885947406,0.20676734652563633,0.3287311202525479,0.06381278772293647,0.056349636153867906,1130.7310191863098,30438.904354032828
16.66110183639399,1122.1636145959224,1121.2952349499715,0.6035441173211524,0.21062259689901205,0.32948952055540165,0.06300960343036238,0.05642299443435029,1130.0358641001385,30460.15579534136
16.69449081803005,1123.0870294525898,1122.2104071435906,0.606354052901847,0.21453363175687837,0.330253130652847,0.06220080903820741,0.056496367576032394,1129.3361260862102,30481.40727361277
16.72787979966611,1124.0180432294117,1123.1328781415427,0.6091799628524261,0.2185008053303213,0.33102192160430177,0.061386430768668766,0.05656974612373064,1128.6318267732559,30502.658993285066
16.76126878130217,1124.9567544489626,1124.0627433228608,0.612021708362865,0.2225244587606691,0.3317958625101722,0.06056649686245844,0.05664312053055484,1127.9229893905958,30523.911161095566
16.79465776293823,1125.903261625727,1125.0000980995064,0.6148791442295062,0.22660491939364197,0.3325749204857009,0.059741037609258384,0.05671648115888735,1127.209638796178,30545.163986076463
16.82804674457429,1126.8576632212626,1125.9450378964943,0.6177521187886762,0.23074250006098115,0.33335906063527926,0.05891008537781796,0.05678981828134779,1126.4918015045137,30566.417679549373
16.86143572621035,1127.8200575913754,1126.8976581225538,0.6206404738519857,0.23493749834970212,0.3341482460272539,0.058073674645667143,0.05686312208174034,1125.7695057145156,30587.672455118714
16.89482470784641,1128.7905429256994,1127.8580541319125,0.623544044643384,0.23919019585921417,0.33494243766926174,0.057231842028413166,0.056936382655980555,1125.042781337211,30608.92852866362
16.92821368948247,1129.7692171800059,1128.8263211777094,0.6264626597380225,0.243500857446592,0.3357415944841234,0.05638462630859379,0.05700959001299901,1124.3116600233172,30630.186118328227
16.96160267111853,1130.756178001541,1129.8025543574674,0.6293961410029991,0.24786973046038102,0.3365456732863285,0.05553206846405525,0.05708273407561894,1123.5761751906664,30651.445444510166
16.99499165275459,1131.7515226476223,1130.7868485510096,0.6323443035400297,0.25229704396336144,0.3373546287591417,0.05467421169582755,0.057155804681405346,1122.8363620514542,30672.70672984694
17.02838063439065,1132.7553478977181,1131.7792983511354,0.6353069556301223,0.25678300794480957,0.33816841343236564,0.05381110145546237,0.05722879158348314,1122.0922576393004,30693.9701992002
17.06176961602671,1133.7677499591769,1132.779997987335,0.6382838986802913,0.2613278125228082,0.3389869776607881,0.05294278547180781,0.057301684451321756,1121.3439008360992,30715.236079637536
17.09515859766277,1134.7888243667667,1133.78904124278,0.6412749271723825,0.2659316271372688,0.33981026960334815,0.05206931377718534,0.05737447287148412,1120.5913323986397,30736.50460041179
17.128547579298832,1135.8186658761526,1134.806521364795,0.6442798286140486,0.2705945997343739,0.3406382352030512,0.05119073873293997,0.0574471463483375,1119.8345949849731,30757.775992937626
17.16193656093489,1136.8573683514207,1135.8325309689758,0.6472983834919392,0.27531685594323557,0.3414708181676686,0.05030711505432908,0.057519694304724485,1119.0737331805099,30779.05049076522
17.195325542570952,1137.9050246467486,1136.8671619371141,0.650330365227151,0.2800984982456196,0.34230795995125307,0.04941849983471769,0.05759210608259185,1118.3087935238175,30800.328329550965
17.22871452420701,1138.9617264822948,1137.9105053090445,0.6533755401329885,0.2849396051396527,0.3431495997365029,0.04852495256904772,0.05766437094357538,1117.539824532101,30821.609747024926
17.262103505843072,1140.0275643143852,1138.9626511685258,0.6564336673750893,0.2898402302985115,0.34399567441801293,0.047626535176544096,0.05773647806953911,1116.7668767263356,30842.894982955
17.29549248747913,1141.1026272000518,1140.023688523252,0.6595044989339578,0.2948004017251309,0.3448461185864422,0.04672331202262561,0.05780841656306692,1115.9900026560329,30864.18427910762
17.328881469115192,1142.187002655972,1141.0937051790688,0.6625877795699597,0.29982012090406407,0.3457008645136393,0.045815349939981445,0.05788017544790521,1115.2092569236052,30885.4778792048
17.36227045075125,1143.2807765118641,1142.172787608465,0.6656832467908204,0.3048993619516551,0.3465598421387563,0.044902718248779165,0.05795174366935493,1114.4246962083118,30906.776028877426
17.395659432387312,1144.384032758368,1143.261020813402,0.6687906308216817,0.31003807076577755,0.3474229790553948,0.043985488775963665,0.05802311009461169,1113.6363792897523,30928.078975614644
17.42904841402337,1145.4968533894541,1144.358488182534,0.671909654577754,0.31523616417641853,0.34829020049981607,0.04306373587361096,0.058094263513052566,1112.8443670708737,30949.38696870922
17.462437395659432,1146.6193182393943,1145.4652713428613,0.675040033639621,0.3204935290984717,0.34916142934025934,0.042137536436294386,0.058165192636468584,1112.048722600477,30970.700259198667
17.49582637729549,1147.751504814318,1146.5814500058666,0.6781814762312325,0.32581002168812484,0.3500365860674046,0.04120696991742524,0.058235886099241525,1111.2495110951777,30992.019099802128
17.529215358931552,1148.8934881183914,1147.7071018081706,0.6813336832006411,0.3311854665043056,0.35091558878602375,0.04027211834452356,0.05830633245846439,1110.4467999607973,31013.34374485274
17.562604340567614,1150.0453404746404,1148.8423021467424,0.6844963480035219,0.33661965567666075,0.35179835320785935,0.03933306633337907,0.05837652019400429,1109.6406588131556,31034.674450225415
17.59599332220367,1151.207131340445,1149.9871240087036,0.6876691566895231,0.34211234808161395,0.352684792645776,0.03838990110105682,0.058446437708507444,1108.8311594982247,31056.011473259972
17.629382303839733,1152.378927117732,1151.1416377957523,0.6908517878914997,0.34766326852806295,0.3535748180092273,0.03744271247770369,0.05851607332734514,1108.0183761116223,31077.35507267931
17.66277128547579,1153.5607909578866,1152.3059111432492,0.6940439128176624,0.3532721069543058,0.3544683378010822,0.0364915929171119,0.0585854152985005,1107.202385017404,31098.70550850269
17.696160267111853,1154.7527825614095,1153.480008733987,0.6972451952467076,0.3589385176378296,0.3553652581158587,0.03553663750599067,0.05865445179239538,1106.3832648661241,31120.063041953865
17.72954924874791,1155.954957972341,1154.6639921066817,0.7004552915259548,0.3646621184195837,0.35626548263940855,0.034577943971902725,0.058723170901657185,1105.561096612136,31141.427935363925
17.762938230383973,1157.1673693674732,1155.85791945921,0.7036738505725592,0.37044248994440443,0.3571689126501036,0.033615612689814646,0.058791560640825274,1104.7359635300893,31162.800452068892
17.79632721202003,1158.3900648403717,1157.0618454466282,0.7069005138778278,0.37627917491923013,0.3580754470215682,0.032649746687216555,0.05885960894599696,1103.907951230602,31184.180856301704
17.829716193656093,1159.6230881802294,1158.275820973994,0.7101349155147053,0.38217167739077923,0.3589849822270096,0.03168045164775931,0.058927303674413,1103.0771476750654,31205.569413078636
17.86310517529215,1160.866478645564,1159.4998929840274,0.7133766821484612,0.3881194620443205,0.35989741234519274,0.03070783591336373,0.05899463260398282,1102.2436431895533,31226.966388079945
17.896494156928213,1162.1202707327868,1160.7341042396288,0.7166254330506443,0.39412195352518503,0.36081262906811123,0.02973201048474959,0.0590615834327496,1101.4075304777991,31248.37204752469
17.92988313856427,1163.3844939396488,1161.9784931012882,0.7198807801163393,0.40017853578461154,0.3617305217104018,0.028753089020338712,0.05912814377829563,1100.568904633216,31269.786658039513
17.963272120200333,1164.659172523588,1163.2330932994043,0.7231423278847879,0.40628855145152293,0.36265097722055406,0.02777118783347993,0.059194301177088515,1099.727863149916,31291.21048652132
17.996661101836395,1165.9443252549854,1164.4979337015343,0.7264096735634169,0.4124513012317581,0.3635738801939626,0.026786425887950705,0.05926004308376875,1098.8845059327057,31312.64379999372
18.030050083472453,1167.2399651653434,1165.7730380746032,0.7296824070553277,0.418666043336272,0.36449911288787157,0.025798924791684927,0.059325356870379514,1098.0389353060252,31334.086865457113
18.063439065108515,1168.5460992904066,1167.0584248420837,0.7329601109903044,0.42493199293974504,0.3654265552382597,0.024808808788680768,0.059390229825539695,1097.1912560217982,31355.539949732294
18.096828046744573,1169.862728408222,1168.3541068361637,0.7362423607593801,0.43124832167098165,0.3663560848787105,0.02381620474904374,0.059454649153561065,1096.3415752661613,31377.003319297426
18.130217028380635,1171.1898467721655,1169.6600910449233,0.7395287245530283,0.437614157136438,0.3672875771613159,0.02282124215711761,0.05951860197351116,1095.4900026650485,31398.477240118344
18.163606010016693,1172.5274418389413,1170.9763783545247,0.7428187634030218,0.44402858247810767,0.3682209051796523,0.021824053097663693,0.059582075318223106,1094.6366502886005,31419.961977471958
18.196994991652755,1173.875493991571,1172.3029632864366,0.7461120312280188,0.45049063596696154,0.36915593979387445,0.020824772240044132,0.05964505613325432,1093.7816326543655,31441.45779576274
18.230383973288813,1175.2339762573947,1173.6398337296948,0.7494080748829245,0.4569993106330082,0.3700925496579592,0.019823536820374552,0.059707531275795776,1092.9250667292733,31462.964958332115
18.263772954924875,1176.602854021112,1174.9869706682116,0.7527064342120863,0.46355355393300035,0.3710306012491366,0.018820486621607926,0.05976948751353447,1092.0670719303478,31484.483727260635
18.297161936560933,1177.9820847329056,1176.3443479031257,0.7560066421063683,0.4701522674566746,0.37196995889952633,0.01781576395152586,0.0598309115234714,1091.2077701241321,31506.014363162893
18.330550918196995,1179.3716176117198,1177.7119317701317,0.7593082245641684,0.47679430667236067,0.372910484829976,0.016809513618624917,0.05989178989069955,1090.3472856247938,31527.557124974945
18.363939899833053,1180.7713933439027,1179.0896808514985,0.7626107007564126,0.48347848071265254,0.3738520391859876,0.015801882905958704,0.059952109107149196,1089.4857451908385,31549.11226973423
18.397328881469114,1182.181343777839,1180.4775456815444,0.7659135830955845,0.4902035522007698,0.3747944800752153,0.014793021543246576,0.06001185557032447,1088.6232780202452,31570.680052351843
18.430717863105173,1183.6013916170111,1181.8754684403982,0.7692163773087863,0.4969682371180566,0.3757376636043403,0.013783081678612738,0.060071015582115896,1087.7600157433128,31592.260725377077
18.464106844741234,1185.031450121253,1183.2833826144283,0.7725185825147356,0.5037712047128629,0.37668144390620284,0.012772217855650176,0.06012957534803178,1086.8960924103426,31613.854538754207
18.497495826377296,1186.4714228566975,1184.70121253237,0.7758196913040658,0.5106110774502473,0.3776256731189588,0.011760587019709447,0.06018752097827239,1086.031644462212,31635.46173957196
18.530884808013354,1187.9212036647693,1186.1288723911314,0.7791191898202152,0.5174864309990524,0.37857020115564954,0.010748348654420719,0.06024483849666282,1085.166810633329,31657.082571807394
18.564273789649416,1189.3806775748621,1187.5662631188275,0.7824165578292284,0.5243957942403278,0.3795148745746139,0.009735665479278932,0.060301513883136496,1084.3017315714694,31678.717276072177
18.597662771285474,1190.8497257728318,1189.01325993849,0.7857112687286156,0.5313376492255393,0.38045953158177437,0.008722706562469342,0.060357533260544154,1083.4365482460648,31700.366089395386
18.631051752921536,1192.3282481121755,1190.4696595494,0.7890027892809962,0.5383104307657747,0.3814039802707377,0.007709660898036177,0.06041288370760085,1082.5713951105076,31722.02924518959
18.664440734557594,1193.8162620866149,1191.9349505916373,0.7922905781444339,0.5453125242224852,0.3823479036865961,0.006696796648590127,0.06046755680921436,1081.706370356493,31743.70697403559
18.697829716193656,1195.3143360650183,1193.4073080124315,0.7955740769008036,0.5523422503245912,0.38329044363922365,0.005684721070548807,0.060521564179475254,1080.8414063473354,31765.399523060707
18.731218697829714,1196.8248673363155,1194.8786784560657,0.7988510108493089,0.5593942772251724,0.38422792316868165,0.004676016160554881,0.06057497686514335,1079.9761452924286,31787.1183242176
18.764607679465776,1198.3603723506242,1196.318098647266,0.8021184898170082,0.5664619556359991,0.3851469725474955,0.003679367227835065,0.06062821856858417,1079.107356268457,31808.878051638072
18.797996661101834,1199.9715444558262,1197.6275619996493,0.8053751618526465,0.5735422299750598,0.38600396765223394,0.0027220466298731667,0.060682910715697834,1078.2216007433165,31830.679638198275
18.831385642737896,1201.7962149623231,1198.651838614733,0.8086181615999196,0.5806308409279971,0.3867093669054781,0.0018599915639792455,0.06074240754763292,1077.2912765925746,31852.525624736118
18.864774624373954,1204.0575717399802,1199.4103517826175,0.8118428745457831,0.587726889757459,0.3871881189825847,0.0011402403000937038,0.06080952873144182,1076.2938952907298,31874.42267016599
18.898163606010016,1207.00152501069,1200.1144359290454,0.8150442031202975,0.5948410987318927,0.38740657244825266,0.0005840348051141191,0.06088554165983661,1075.2201497453536,31896.383609149547
18.931552587646078,1210.8860910834553,1200.9769395925719,0.8182171066238464,0.6019977495184804,0.38732716435473685,0.00021489621564893524,0.06097186292321433,1074.0592813668582,31918.42805882956
18.964941569282136,1215.9688389240544,1202.3040264557455,0.821356703484051,0.6092345244418103,0.3869362115195335,4.137813206978136e-05,0.061069004472342384,1072.8079401550813,31940.58278150748
18.998330550918197,1222.4006253070208,1204.6887369054157,0.8244598680365837,0.6166072298679507,0.3863316905259187,2.4630001105338905e-06,0.06117324072317964,1071.4974661432054,31962.881348566614
19.031719532554256,1230.1263700815753,1208.6644418648682,0.8275273386755999,0.624192332125903,0.38567058996797404,3.11704878333608e-08,0.061278581425506386,1070.1761650921012,31985.36079034727
19.065108514190317,1238.9974646959663,1214.2270095817755,0.8305621528631939,0.6320721888981405,0.385006183030648,8.421629643399837e-11,0.061382936088674046,1068.858329626883,32008.056473952936
19.098497495826376,1248.8745437451635,1221.1857676803295,0.8335672056621974,0.6403215184260626,0.38434069677951443,5.277351626580635e-14,0.06148612760047948,1067.5421926230697,32030.99999385118
19.131886477462437,1259.6379450616998,1229.3639145892873,0.8365447935354905,0.649005856923747,0.38367279690900363,5.811956188710168e-18,0.061588092975789384,1066.225230043456,32054.219396613847
19.165275459098496,1271.185267344267,1238.6097017232569,0.839496681502602,0.658182255097273,0.3830012915422588,-5.957770366478028e-19,0.061688742552274266,1064.9053021022912,32077.739697591813
19.198664440734557,1283.429014852654,1248.793382383321,0.8424241873997476,0.6678995359483515,0.382325162703223,-2.832202080665325e-19,0.06178795902626054,1063.5806305721992,32101.583334325333
19.232053422370615,1296.2944605029638,1259.8042818747406,0.8453282578355645,0.678198169606002,0.38164355488339846,-5.953944289786035e-20,0.06188559843703432,1062.2497730722855,32125.770552829923
19.265442404006677,1309.7177150794146,1271.54816016418,0.8482095350918321,0.6891099028025098,0.3809557684420371,8.513780165807075e-20,0.061981491104111205,1060.9116068466249,32150.319734691835
19.298831385642735,1323.6439906016737,1283.9448475722943,0.8510684150484332,0.7006572437652625,0.38026125666397104,-3.5446117434409067e-20,0.062075442447118,1059.565319528923,32175.247671913097
19.332220367278797,1338.0260441221715,1296.9261316011405,0.8539050966147341,0.712852875423542,0.3795596254498373,3.522635510453642e-19,0.06216723366099567,1058.2104048961494,32200.569795520023
19.36560934891486,1352.8227875465907,1310.4338726662168,0.8567196233863519,0.7256990480947345,0.3788506348491567,-2.134477317237448e-19,0.06225662224326144,1056.846662069676,32226.30036316338
19.398998330550917,1367.9980490561832,1324.4183272306313,0.8595119183620676,0.739186984992467,0.3781342018530473,-6.753659274078219e-19,0.062343342382820036,1055.474197022871,32252.45261027328
19.43238731218698,1383.5194720394074,1338.8366581595603,0.8622818125873186,0.7532963188563434,0.3774104040486124,-1.9742681379526412e-19,0.06242710522403665,1054.093425614221,32279.038868765554
19.465776293823037,1399.3575378966423,1353.6516136664277,0.8650290685672173,0.7679945651990874,0.37667948390354156,-1.5675701788211967e-19,0.06250759901800619,1052.7050776883825,32306.070656809174
19.4991652754591,1415.484699534101,1368.8303577637603,0.867753399234995,0.7832366268042477,0.37594185359758797,5.097426972500128e-19,0.06258448916729697,1051.3102020740944,32333.558742738907
19.532554257095157,1431.8746127371514,1384.3434365232963,0.8704544831866409,0.7989643148755186,0.37519810044890195,1.27378180733225e-19,0.06265741816248076,1049.9101725601429,32361.513185816744
19.56594323873122,1448.501452862899,1400.1638656400912,0.8731319768101224,0.8151058641196527,0.3744489931026285,1.6382382648431917e-19,0.06272600539938987,1048.5066951575761,32389.943356196774
19.599332220367277,1465.339304367815,1416.2663257933457,0.8757855238550485,0.8315754111420421,0.37369548876719316,1.433908481310538e-19,0.06278984685535192,1047.101817177442,32418.857936118475
19.63272120200334,1482.3616105057358,1432.6264531519414,0.8784147629106136,0.848272396367582,0.37293874191877624,9.93778090020227e-20,0.06284851458970993,1045.697938902685,32448.26490403192
19.666110183639397,1499.540669937249,1449.2202131585075,0.8810193331889122,0.865080836862347,0.37218011507770316,2.1923826702251715e-19,0.06290155601636448,1044.2978289674545,32478.171503032056
19.69949916527546,1516.8471656918282,1466.0233465408135,0.8835988789489839,0.8818683969074499,0.37142119254442113,2.8622063067112684e-19,0.06294849286919085,1042.9046450728033,32508.584194632458
19.732888146911517,1534.249709379243,1483.0108774949676,0.8861530528453792,0.8984851478740518,0.3706637984609347,1.149095202034461e-19,0.06298881973612423,1041.5219625343852,32539.508598515902
19.76627712854758,1551.714378736697,1500.1566754619507,0.8886815184449787,0.9147618454240066,0.36991002141373835,1.5996759151110333e-19,0.06302200195716193,1040.1538146970472,32570.949418419135
19.79966611018364,1569.2042174929977,1517.4330645904477,0.8911839521296797,0.9305074327295448,0.3691622493813409,1.5872133129392926e-19,0.0630474725296275,1038.8047521236726,32602.91035366534
19.8330550918197,1586.6786487976794,1534.8104807378202,0.8936600445960008,0.9455052415634075,0.3684232219693737,1.5884329701704258e-19,0.06306462736022708,1037.4799331481533,32635.393994907976
19.86644407345576,1604.0927169545532,1552.2571902026632,0.8961095021895319,0.9595068561293207,0.36769611358631,1.0150514623416132e-19,0.0630728175481627,1036.1852705283916,32668.40170109897
19.89983305509182,1621.3959901559435,1569.7391251479337,0.8985320484094836,0.9722213991507819,0.3669846771495705,1.4427343088010064e-20,0.06307133581639053,1034.9276877955026,32701.93345188552
19.93322203672788,1638.5307463661627,1587.2200258280207,0.9009274261985041,0.9832946711363494,0.36629352188679537,9.075180071770808e-21,0.06305938986250206,1033.7156185815809,32735.987663905595
19.96661101836394,1655.4283981756405,1604.6626418455724,0.9032954025111184,0.9922610063536843,0.3656287515083932,-2.355497256584365e-20,0.06303604026086515,1032.5601591514044,32770.560945717596
20.0,1672.0000000000002,1622.0353391726082,0.9056357803438885,0.9983892371176232,0.365,-4.6594875207899615e-21,0.06300000000000001,1031.478756459367,32805.64772344138
