z,T,t,fs,fl,x,y,w,rhob,p
0.0,634.416793606085,505.0,0.0,0.0,0.16090768110422426,0.236900301020571,0.047731399233255735,1268.0,14330.0
0.0133422281521014,645.6456637955903,522.2449408691696,3.660291164459758e-05,0.0,0.16091903652617814,0.2368889455983282,0.04773139923279888,1267.9920849861353,14345.029649365093
0.0266844563042028,656.3203034584205,538.6059099843959,8.052344202872538e-05,0.0,0.16093266211244317,0.23687532001123052,0.04773139923148218,1267.9825876099221,14360.455340681052
0.0400266844563042,666.4743918373927,554.139919235252,0.00013216341985286547,0.0,0.16094868252237654,0.23685929959915267,0.047731399228091,1267.9714209792558,14376.25826899658
0.0533689126084056,676.1389425659282,568.899092088814,0.0001918430157682537,0.0,0.16096719708122853,0.2368407850352832,0.04773139922015664,1267.9585158590792,14392.42039584819
0.066711140760507,685.3425773258563,582.9312140455469,0.00025980736693295676,0.0,0.1609882818345113,0.23681970027119184,0.04773139920306467,1267.9438192384007,14408.924426369349
0.0800533689126084,694.1117648578337,596.2802058235499,0.0003362340219761988,0.0,0.16101199185655607,0.2367959902274721,0.0477313991687893,1267.9272927196978,14425.753785191284
0.0933955970647098,702.4710304611136,608.9865321702213,0.00042124060513188294,0.0,0.1610383636267005,0.23676961841649252,0.04773139910421509,1267.9089108607066,14442.892591670334
0.1067378252168112,710.4431402614174,621.0875567201846,0.0005148923064729829,0.0,0.16106741735116,0.23674056461920034,0.04773139898904206,1267.8886595535819,14460.325634843812
0.1200800533689126,718.0492638244335,632.6178513757667,0.0006172089568186851,0.0,0.161099159155716,0.23670882269086765,0.047731398793309336,1267.8665344936592,14478.038348415408
0.133422281521014,725.309118117481,643.609467152122,0.000728171552783349,0.0,0.16113358310755027,0.23667439853749675,0.047731398474612004,1267.842539766952,14496.016785994148
0.1467645096731154,732.2410953487854,654.0921722079597,0.0008477281704858711,0.0,0.16117067304724708,0.23663730828193183,0.04773139797511806,1267.8166865697317,14514.247596752182
0.1601067378252168,738.8623768231519,664.0936618038721,0.0009757992546946669,0.0,0.1612104042269762,0.23659757662374653,0.047731397218517525,1267.7889920631303,14532.71800162147
0.1734489659773182,745.18903462903,673.6397441401241,0.001112282300737376,0.0,0.16125274476036064,0.23655523538749534,0.04773139610704831,1267.7594783590882,14551.415770114754
0.1867911941294196,751.2361227026271,682.75450538405,0.0012570559646992567,0.0,0.1612976568951792,0.23651032224827168,0.04773139451874523,1267.7281716300593,14570.32919782951
0.200133422281521,757.017758589872,691.4604566729378,0.0014099836471905215,0.0,0.16134509812307185,0.23646287962049073,0.047731392305049955,1267.6951013327407,14589.447084673064
0.2134756504336224,762.5471970386413,699.7786654476266,0.0015709166000977682,0.0,0.16139502214168477,0.2364129536945374,0.04773138928890193,1267.6602995352232,14608.758713831232
0.2268178785857238,767.8368963950192,707.7288731160012,0.0017396966062348737,0.0,0.16144737968482437,0.2363605936057701,0.0477313852634066,1267.6238003368119,14628.25383149091
0.2401601067378252,772.8985786407557,715.3296007455988,0.0019161582800500284,0.0,0.16150211923561986,0.2363058507209238,0.047731379991148834,1267.585639370144,14647.922627319755
0.25350233488992663,777.7432838086769,722.5982442595217,0.0021001310346032676,0.0,0.161559187636756,0.23624877802787583,0.04773137320419033,1267.5458533758492,14667.75571569139
0.266844563042028,782.3814194030681,729.5511603809714,0.002291440756103061,0.0,0.16161853061059092,0.23618942961596442,0.04773136460475967,1267.504479840825,14687.744117646684
0.2801867911941294,786.8228053690804,736.2037443970719,0.002489911223424283,0.0,0.16168009320075233,0.23612786023525428,0.04773135386661553,1267.4615566920302,14707.879243579806
0.2935290193462308,791.0767150947645,742.5705006820037,0.002695365306110051,0.0,0.16174382014556674,0.23606412492436785,0.04773134063703964,1267.4171220385222,14728.152876628708
0.3068712474983322,795.151912865664,748.6651067893946,0.002907625970519982,0.0,0.16180965619246668,0.23599827869769602,0.04773132453939515,1267.3712139552922,14748.55715674991
0.3202134756504336,799.0566881403405,754.5004718185481,0.0031265171202532085,0.0,0.16187754636141075,0.23593037628390215,0.04773130517616989,1267.3238703032018,14769.084565456162
0.333555703802535,802.7988869708904,760.0887896693819,0.0033518642937459507,0.0,0.16194743616433951,0.23586047190863954,0.047731282132412865,1267.2751285800234,14789.727911194741
0.3468979319546364,806.3859408542065,765.441587724176,0.003583495239034319,0.0,0.16201927178678233,0.2357886191153042,0.04773125497946533,1267.2250257981984,14810.48031534363
0.3602401601067378,809.8248932665513,770.5697714283293,0.003821240383078519,0.0,0.16209300023692186,0.23571487061845156,0.0477312232788857,1267.173598385509,14831.335198802686
0.3735823882588392,813.1224241051941,775.4836651855883,0.004064933210748659,0.0,0.16216856946671482,0.2356392781852184,0.04773118658646904,1267.1208821053285,14852.28626915706
0.3869246164109406,816.2848722357583,780.1930499342055,0.004314410566552752,0.0,0.16224592846904268,0.2355618925407136,0.047731144456266944,1267.0669119935867,14873.327508390283
0.400266844563042,819.3182563220163,784.7071977280732,0.004569512890419189,0.0,0.16232502735432602,0.23548276329389156,0.047731096444521524,1267.0117223099412,14894.453161124908
0.4136090727151434,822.2282940956981,789.0349036100233,0.004830084397303308,0.0,0.1624058174095663,0.23540193888089544,0.04773104211343701,1266.9553465010097,14915.657723369159
0.4269513008672448,825.0204202070622,793.1845150324249,0.005095973209045794,0.0,0.16248825114237234,0.23531946652327212,0.04773098103472395,1266.8978171738047,14936.93593174845
0.4402935290193462,827.6998027822001,797.1639590522033,0.005367031445745849,0.0,0.16257228231217768,0.23523539219881828,0.047730912792862894,1266.8391660777643,14958.282753201493
0.4536357571714476,830.271358799418,800.9807675019787,0.005643115282913397,0.0,0.1626578659505575,0.2351497606231247,0.04773083698804728,1266.779424094011,14979.693375121706
0.466977985323549,832.7397683863467,804.6421003187905,0.0059240849797832515,0.0,0.16274495837228922,0.2350626152401558,0.04773075323877696,1266.7186212306506,15001.163195924863
0.4803202134756504,835.1094881322343,808.1547671976136,0.0062098048833532085,0.0,0.1628335171785578,0.23497399822045195,0.04773066118408503,1266.6567866231242,15022.687816021673
0.4936624416277518,837.3847634934451,811.5252477085891,0.006500143412191807,0.0,0.16292350125355537,0.234883950465703,0.04773056048539166,1266.5939485387257,15044.263029181402
0.5070046697798533,839.569640367526,814.7597100106102,0.006794973023415107,0.0,0.16301487075553178,0.23479251161863526,0.04773045082798768,1266.5301343845565,15065.884814268722
0.5203468979319547,841.6679759033697,817.864028279732,0.007094170165752329,0.0,0.16310758710321188,0.23469972007730483,0.04773033192215812,1266.4653707182936,15087.549327337227
0.533689126084056,843.683448608263,820.8437989587233,0.007397615221208767,0.0,0.16320161295837307,0.2346056130130141,0.047730203503963155,1266.3996832612304,15109.252894063953
0.5470313542361575,845.6195678069463,823.7043559238132,0.007705192437473756,0.0,0.1632969122052684,0.23451022639117952,0.047730065335698076,1266.3330969131487,15130.99200251011
0.5603735823882589,847.4796825027431,826.4507846555518,0.00801678985291078,0.0,0.16339344992748867,0.2344135949945737,0.047729917206058334,1266.265635768626,15152.763296193616
0.5737158105403602,849.2669896862801,829.0879354925438,0.008332299215699017,0.0,0.16349119238277504,0.23431575244844885,0.0477297589300379,1266.1973231344668,15174.563567459885
0.5870580386924616,850.9845421332446,831.6204360395361,0.008651615898464951,0.0,0.16359010697622442,0.23421673124711737,0.04772959034859069,1266.128181547977,15196.389751137722
0.600400266844563,852.6352557289747,834.0527027948108,0.008974638809543934,0.0,0.1636901622322668,0.23411656278162926,0.04772941132808523,1266.0582327958514,15218.238918467854
0.6137424949966644,854.2219163543815,836.388952055999,0.00930127030184044,0.0,0.1637913277657429,0.23401527736823838,0.04772922175958237,1265.9874979334877,15240.1082712922
0.6270847231487658,855.7471863647414,838.6332101581669,0.009631416080108379,0.0,0.16389357425236162,0.2339129042773945,0.04772902155796509,1265.915997304556,15261.995136492353
0.6404269513008672,857.2136106902266,840.7893230933197,0.009964985107345906,0.0,0.16399687339877692,0.23380947176304007,0.04772881066094761,1265.8437505606994,15283.896960666529
0.6537691794529686,858.6236225846186,842.8609655562028,0.010301889510889943,0.0,0.16410119791248856,0.2337050070920225,0.04772858902798961,1265.7707766812405,15305.811305034389
0.66711140760507,859.9795490464661,844.8516494574436,0.010642044488998645,0.0,0.1642065214718323,0.23359953657337276,0.047728356639138915,1265.6970939927494,15327.735840559966
0.6804536357571714,861.2836163512862,846.7647325333139,0.010985371579986818,0.0,0.16431281973910358,0.2334930845444179,0.04772811349382398,1265.6227194614617,15349.668343283802
0.6937958639092728,862.5383084650571,848.6039279644875,0.011334671708809382,0.0,0.16442096167525624,0.23338478205479982,0.047727859608825765,1265.5470474245726,15371.606693899155
0.7071380920613742,863.7456889180679,850.3723393800526,0.011690213970556008,0.0,0.16453103079426715,0.233274545609576,0.04772759501426927,1265.4700197094926,15393.54888680448
0.7204803202134756,864.9073253314826,852.072358744024,0.012048870774325413,0.0,0.16464205685896918,0.23316334547679654,0.047727319759015716,1265.3923126532984,15415.492991617502
0.733822548365577,866.0250840991056,853.7067947944345,0.012410562758699012,0.0,0.1647540153095428,0.2330512062568395,0.047727033907226296,1265.3139434523218,15437.437161604375
0.7471647765176784,867.1007532754195,855.2783368879121,0.012775222469168146,0.0,0.16486688529166973,0.23293814885292116,0.0477267375362491,1265.2349267353843,15459.379634603592
0.7605070046697798,868.1360450717756,856.7895590228383,0.01314278489320217,0.0,0.16498064671913973,0.2328241934077386,0.04772643073543219,1265.155276609843,15481.318729432573
0.7738492328218812,869.1325993295975,858.2429252185951,0.013513187377844214,0.0,0.1650952802472708,0.23270935932932402,0.047726113604975605,1265.075006678779,15503.252842444366
0.7871914609739826,870.0919868140979,859.6407946093321,0.013886369550648923,0.0,0.16521076724740485,0.2325936653158501,0.04772578625482727,1264.9941300574858,15525.180444230673
0.800533689126084,871.015712339241,860.9854262699226,0.014262273242657341,0.0,0.16532708978207905,0.23247712937979179,0.04772544880362688,1264.9126593895494,15547.100076464805
0.8138759172781854,871.9052177340637,862.2789837906938,0.0146408424134407,0.0,0.16544423058088373,0.23235976887143214,0.04772510137770087,1264.8306068625016,15569.010348878584
0.8272181454302868,872.7618846597622,863.5235396162996,0.015022023078230482,0.0,0.16556217301701506,0.232241600501708,0.04772474411011039,1264.7479842230566,15590.909936367381
0.8405603735823882,873.5870372862809,864.7210791629908,0.015405763237139564,0.0,0.16568090108452438,0.23212264036439284,0.047724377139753325,1264.6648027919225,15612.797576217825
0.8539026017344896,874.3819448365427,865.8735047275151,0.01579201280646886,0.0,0.1658003993762633,0.23200290395761816,0.047724000610520935,1264.5810734781926,15634.672065452884
0.867244829886591,875.1478240059042,866.98263919995,0.01618072355208513,0.0,0.16592065306251902,0.23188240620473946,0.04772361467050864,1264.4968067933191,15656.532258289277
0.8805870580386924,875.8858412639003,868.0502295919066,0.01657184902484818,0.0,0.16604164787033293,0.2317611614745518,0.047723219471280325,1264.4120128646723,15678.37706370246
0.8939292861907938,876.5971150447475,869.0779503905592,0.016965344498064753,0.0,0.1661633700634951,0.23163918360086397,0.04772281516718501,1264.3267014486894,15700.205443094614
0.9072715143428952,877.2827178328479,870.0674067485518,0.017361166906933664,0.0,0.16628580642320032,0.23151648590144178,0.04772240191472432,1264.2408819436237,15722.016408061285
0.9206137424949966,877.9436781496303,871.0201375199063,0.017759274789924232,0.0,0.1664089442293487,0.2313930811963389,0.04772197987196895,1264.1545634018973,15743.809018251717
0.933955970647098,878.5809824463078,871.93761814935,0.01815962823207753,0.0,0.16653277124248347,0.23126898182561964,0.04772154919802233,1264.067754542071,15765.582379319818
0.9472981987991994,879.1955769078216,872.8212634234817,0.018562188810180277,0.0,0.16665727568635016,0.23114419966648908,0.04772111005252925,1263.9804637604273,15787.335640961617
0.9606404269513008,879.7883691727633,873.6724300914177,0.018966919539764742,0.0,0.16678244623105998,0.23101874614984616,0.047720662595227406,1263.8926991421868,15809.067995035492
0.9739826551034022,880.3602299737101,874.4924193619867,0.01937378482388918,0.0,0.1669082719768415,0.23089263227627377,0.04772020698553936,1263.804468472358,15830.778673761624
0.9873248832555036,880.9119947021333,875.2824792840901,0.01978275040365211,0.0,0.16703474243836433,0.23076586863148157,0.04771974338220307,1263.715779246237,15852.466947997345
1.0006671114076051,881.4444649017883,876.0438070164297,0.020193783310393235,0.0,0.1671618475296176,0.23063846540121652,0.047719271942938256,1263.626638679559,15874.13212558509
1.0140093395597065,881.9584096942575,876.7775509924214,0.02060685181953358,0.0,0.16728957754932722,0.23051043238565605,0.04771879282414681,1263.5370537183167,15895.773549769945
1.027351567711808,882.4545671401003,877.4848129857543,0.021021925406007235,0.0,0.1674179231668945,0.2303817790132998,0.04771830618064477,1263.447031048249,15917.390597683805
1.0406937958639093,882.9336455388586,878.1666500817253,0.0214389747012376,0.0,0.16754687540884075,0.23025251435437455,0.04771781216542393,1263.3565771040164,15938.982678893302
1.0540360240160107,883.3963246709795,878.824076559171,0.02185797145161087,0.0,0.16767642564573979,0.23012264713376798,0.04771731092944091,1263.2656980780603,15960.549234008846
1.067378252168112,883.8432569845365,879.4580656875319,0.022278888478400847,0.0,0.16780656557962395,0.22999218574350574,0.047716802621431825,1263.1743999291716,15982.089733352153
1.0807204803202135,884.27506872947,880.0695514433172,0.0227016996390989,0.0,0.16793728723184662,0.22986113825478632,0.047716287387750536,1263.0826883907614,16003.603675679815
1.094062708472315,884.6923610419093,880.6594301499931,0.023126379790104526,0.0,0.16806858293138602,0.22972951242958903,0.047715765372228956,1262.9905689788525,16025.090586960527
1.1074049366244163,885.0957109809851,881.2285620450605,0.02355290475073269,0.0,0.1682004453035756,0.22959731573186787,0.047715236716057284,1262.8980469997978,16046.550019203734
1.1207471647765177,885.4856725203089,881.7777727777352,0.023981251268499527,0.0,0.16833286725924726,0.2294645553383443,0.04771470155768298,1262.805127557729,16067.98154933763
1.134089392928619,885.8627774966227,882.3078548411135,0.024411396985630253,0.0,0.16846584198426853,0.22933123814891684,0.04771416003272674,1262.7118155617554,16089.384778134086
1.1474316210807205,886.2275365174631,882.8195689417086,0.024843320406755996,0.0,0.1685993629294628,0.2291973707966979,0.04771361227391406,1262.6181157329106,16110.759329178722
1.160773849232822,886.5804398296483,883.3136453091822,0.025277000867764656,0.0,0.16873342380089965,0.22906295965768864,0.04771305841102108,1262.524032610857,16132.104847884335
1.1741160773849233,886.9219581505192,883.7907849492628,0.025712418505762658,0.0,0.16886801855054168,0.2289280108601065,0.04771249857083342,1262.4295705603613,16153.42100054582
1.1874583055370247,887.2525434636713,884.2516608425481,0.026149554230109378,0.0,0.1690031413672341,0.22879253029337682,0.0477119328771169,1262.3347337775392,16174.707473434742
1.200800533689126,887.5726297808184,884.6969190917345,0.026588389694487576,0.0,0.16913878666802545,0.22865652361680044,0.04771136145059888,1262.2395262958876,16195.96397193196
1.2141427618412275,887.882633871345,885.1271800196831,0.0270289072699738,0.0,0.16927494908980711,0.22851999626790864,0.04771078440895941,1262.1439519920998,16217.190219696698
1.227484989993329,888.1829559610231,885.5430392206052,0.027471090019074298,0.0,0.1694116234812596,0.22838295347051635,0.04771020186683114,1262.0480145916822,16238.385957870496
1.2408272181454303,888.4739804012944,885.9450685665262,0.0279149216706925,0.0,0.16954880489509547,0.22824540024248463,0.047709613935807034,1261.9517176743698,16259.550944314602
1.2541694462975317,888.7560763104468,886.3338171710856,0.028360386595995626,0.0,0.1696864885805866,0.2281073414032024,0.04770902072445516,1261.8550646793558,16280.684952879412
1.267511674449633,889.0295981879484,886.7098123126109,0.028807469785148795,0.0,0.16982466997636675,0.22796878158079742,0.04770842233833988,1261.7580589103306,16301.78777270458
1.2808539026017345,889.2948865031393,887.0735603183172,0.029256156824886043,0.0,0.16996334470349822,0.2278297252190863,0.04770781888004853,1261.6607035403492,16322.859207548552
1.2941961307538359,889.5522682594196,887.4255474113812,0.0297064338768887,0.0,0.17010250855879347,0.22769017658427299,0.047707210449223166,1261.5630016165221,16343.899075146262
1.3075383589059373,889.802057535018,887.7662405225573,0.03015828765694253,0.0,0.1702421575083824,0.22755013977140454,0.0477065971425966,1261.4649560645441,16364.907206593809
1.3208805870580387,890.0445560013748,888.0960880679153,0.030611705414845963,0.0,0.17038228768151553,0.22740961871059281,0.0477059790540323,1261.3665696930593,16385.88344575901
1.33422281521014,890.2800534200778,888.4155206941505,0.03106667491504437,0.0,0.17052289536459544,0.22726861717301028,0.0477053562745677,1261.2678451978736,16406.827648716757
1.3475650433622415,890.5088281193273,888.7249519929468,0.03152318441796303,0.0,0.17066397699542796,0.22712713877666874,0.047704728892460156,1261.168785166015,16427.73968320814
1.3609072715143429,890.7311474509388,889.0247791859421,0.03198122266200835,0.0,0.17080552915768188,0.22698518699198908,0.047704096993235676,1261.0693920796534,16448.619428122147
1.3742494996664443,890.9472682285381,889.3153837812973,0.032440778846221756,0.0,0.17094754857555386,0.22684276514716956,0.04770346065973946,1260.9696683198808,16469.46677299927
1.3875917278185457,891.1574371478137,889.5971322031904,0.03290184261356053,0.0,0.17109003210862855,0.2266998764333579,0.0477028199721883,1260.8696161703522,16490.28161755602
1.400933955970647,891.3618911896111,889.8703763954296,0.03336440403478241,0.0,0.17123297674692786,0.22655652390963674,0.04770217500822436,1260.7692378208017,16511.063871229388
1.4142761841227485,891.5608580066005,890.135454400306,0.033828453592912484,0.0,0.1713763796061414,0.22641271050782727,0.04770152584297001,1260.6685353704315,16531.813452740585
1.4276184122748499,891.7545562942187,890.3926909137467,0.034293982168271335,0.0,0.17152023792303173,0.22626843903711963,0.04770087254908359,1260.5675108311805,16552.53028967704
1.4409606404269513,891.9431961465525,890.642397817791,0.03476098102404431,0.0,0.17166454905100836,0.22612371218853441,0.0477002151968158,1260.4661661308742,16573.21431809211
1.4543028685790527,892.1269793978001,890.8848746913518,0.03522944179237247,0.0,0.1718093104558634,0.22597853253922265,0.04769955385406635,1260.3645031162646,16593.865482121564
1.467645096731154,892.3060999499194,891.1204093001915,0.03569935646094643,0.0,0.17195451971166406,0.22583290255660984,0.047698888586441036,1260.2625235559601,16614.48373361632
1.4809873248832555,892.4807440870424,891.3492780669917,0.03617071736008495,0.0,0.1721001744967947,0.22568682460238956,0.04769821945730869,1260.1602291432514,16635.069031790605
1.4943295530353569,892.6510907772114,891.5717465223586,0.0366435171502809,0.0,0.1722462725901444,0.2255403009363719,0.04769754652785805,1260.057621498835,16655.62134288501
1.5076717811874583,892.8173119619652,891.7880697375671,0.03711774881019758,0.0,0.1723928118674337,0.22539333372019257,0.04769686985715442,1259.954702173441,16676.140639843725
1.5210140093395597,892.979572834283,891.9984927398119,0.037593405625099406,0.0,0.1725397902976757,0.22524592502088756,0.04769618950219588,1259.851472650365,16696.626902005457
1.534356237491661,893.1380321053679,892.2032509106973,0.038070481175700985,0.0,0.17268720593976658,0.22509807681433736,0.04769550551796907,1259.747934347909,16717.080114807348
1.5476984656437625,893.2928422607288,892.4025703686583,0.03854896932741994,0.0,0.17283505693920104,0.22494979098858717,0.04769481795750429,1259.6440886217374,16737.50026950147
1.5610406937958639,893.4441498059754,892.5966683359441,0.03902886422002003,0.0,0.17298334152490738,0.22480106934704538,0.047694126871930115,1259.539936767147,16757.887362883313
1.5743829219479653,893.5920955028421,892.7857534909374,0.03951016025762628,0.0,0.17313205800619863,0.22465191361156722,0.04769343231052696,1259.435480021253,16778.24139703173
1.5877251501000667,893.7368145957819,892.9700263063335,0.039992852099101424,0.0,0.17328120476983375,0.22450232542542656,0.04769273432078014,1259.3307195651005,16798.562379059847
1.601067378252168,893.8784370294946,893.1496793737214,0.04047693464877167,0.0,0.17343078027718706,0.22435230635617942,0.047692032948431946,1259.2256565256996,16818.850320876663
1.6144096064042694,894.017087657783,893.3248977151675,0.04096240304748817,0.0,0.17358078306152105,0.22420185789842387,0.0476913282375327,1259.1202919779844,16839.105238958637
1.6277518345563708,894.1528864440904,893.4958590823353,0.04144925266401198,0.0,0.1737312117253583,0.22405098147645933,0.04769062023049103,1259.0146269467043,16859.32715413104
1.6410940627084722,894.2859486540634,893.6627342436514,0.04193747908671069,0.0,0.1738820649379495,0.22389967844685016,0.047689908968123036,1258.9086624082483,16879.516091358597
1.6544362908605736,894.4163850404572,893.8256872600083,0.042427078115555746,0.0,0.1740333414328337,0.22374795010089557,0.04768919448970049,1258.8023992923977,16899.672079545
1.667778519012675,894.5443020207011,893.9848757494743,0.04291804575440928,0.0,0.17418504000548743,0.22359579766701032,0.04768847683299801,1258.6958384840245,16919.795151340986
1.6811207471647764,894.6698018474177,894.1404511414543,0.04341037820359008,0.0,0.17433715951105955,0.22344322231301927,0.04768775603433912,1258.5889808247211,16939.88534296055
1.6944629753168778,894.7929827721828,894.2925589207345,0.04390407185270877,0.0,0.1744896988621886,0.22329022514836824,0.04768703212864132,1258.481827114376,16959.94269400503
1.7078052034689792,894.9139392027968,894.4413388618214,0.044399123273762026,0.0,0.1746426570268996,0.2231368072262552,0.04768630514946004,1258.374378112691,16979.96724729467
1.7211474316210806,895.0327618543339,894.5869252539677,0.04489552921447697,0.0,0.17479603302657742,0.22298296954568386,0.04768557512903154,1258.2666345406421,16999.95904870739
1.734489659773182,895.1495378942145,894.7294471172627,0.045393286591896245,0.0,0.17494982593401393,0.22282871305344323,0.04768484209831472,1258.1585970818928,17019.918147024466
1.7478318879252834,895.2643510815448,894.8690284101476,0.04589239248619534,0.0,0.17510403487152607,0.2226740386460149,0.047684106087031816,1258.0502663841519,17039.844593782767
1.7611741160773848,895.3772819009505,895.0057882287043,0.04639284413472351,0.0,0.17525865900914261,0.2225189471714118,0.047683367123708166,1257.941643060482,17059.73844313337
1.7745163442294862,895.4884076911208,895.1398409980287,0.04689463892626103,0.0,0.1754136975628568,0.22236343943094958,0.04768262523571073,1257.8327276905663,17079.599751706242
1.7878585723815876,895.5978027682786,895.271296656032,0.04739777439548392,0.0,0.1755691497929427,0.2222075161809545,0.04768188044928565,1257.7235208219224,17099.4285784807
1.801200800533689,895.7055385448173,895.4002608300082,0.0479022482176276,0.0,0.1757250150023319,0.2220511781344092,0.04768113278959482,1257.6140229710795,17119.22498466145
1.8145430286857904,895.811683643241,895.5268350061951,0.048408058203344456,0.0,0.17588129253504997,0.22189442596253922,0.04768038228075133,1257.5042346247074,17138.98903355999
1.8278852568378918,895.916304005618,895.6511166926252,0.04891520229374754,0.0,0.17603798177470945,0.22173726029634158,0.04767962894585394,1257.3941562407088,17158.72079048108
1.8412274849899932,896.019462998723,895.7731995755416,0.04942367855563348,0.0,0.17619508214305743,0.22157968172805828,0.047678872807020586,1257.283788249269,17178.42032261415
1.8545697131420946,896.1212215150456,895.8931736696395,0.04993348517687819,0.0,0.1763525930985762,0.2214216908125965,0.04767811388542083,1257.1731310538723,17198.087698929437
1.867911941294196,896.2216380698275,896.0111254623753,0.050444620461999067,0.0,0.17651051413513452,0.22126328806889697,0.047677352201307394,1257.0621850322752,17217.722990078513
1.8812541694462974,896.3207688942852,896.1271380525822,0.05095708282787755,0.0,0.1766688447806876,0.22110447398125338,0.04767658777404677,1256.9509505374508,17237.32626829926
1.8945963975983988,896.418668025172,896.2412912836188,0.051470870799636366,0.0,0.17682758459602463,0.22094524900058377,0.047675820622148805,1256.839427898496,17256.897607324885
1.9079386257505002,896.5153873908239,896.3536618712684,0.051985983006665716,0.0,0.17698673317356134,0.2207856135456559,0.047675050763295534,1256.7276174215062,17276.437082296925
1.9212808539026016,896.6109768938306,896.4643235265968,0.05250241817879303,0.0,0.17714629013617664,0.2206255680042686,0.047674278214368926,1256.6155193904185,17295.944769682046
1.934623082054703,896.7054844904627,896.5733470739711,0.053020175142591205,0.0,0.17730625513609113,0.22046511273438982,0.047673502991477955,1256.5031340678263,17315.42074719247
1.9479653102068044,896.7989562669873,896.6808005644281,0.05353925281781993,0.0,0.17746662785378634,0.22030424806525434,0.04767272510998467,1256.3904616957611,17334.86509370992
1.9613075383589058,896.8914365129945,896.78674938458,0.054059650213995794,0.0,0.17762740799696314,0.22014297429842125,0.047671944584529564,1256.2775024964503,17354.277889212808
1.9746497665110072,896.9829677918518,896.891256361232,0.054581366427085956,0.0,0.17778859529953758,0.21998129170879333,0.047671161429056,1256.1642566730432,17373.65921470678
1.9879919946631086,897.0735910084042,896.9943818618804,0.0551044006363213,0.0,0.17795018952067362,0.21981920054559978,0.04767037565683397,1256.0507244103162,17393.00915215813
2.0013342228152102,897.1633454740152,897.0961838912436,0.055628752101125,0.0,0.1781121904438503,0.21965670103334323,0.047669587280483,1255.9369058753464,17412.327784430345
2.0146764509673116,897.2522689690874,897.1967181840195,0.05615442015815085,0.0,0.1782745978759627,0.2194937933727128,0.047668796311994346,1255.822801218166,17431.615195223327
2.028018679119413,897.3403978031406,897.296038293991,0.05668140421842858,0.0,0.17843741164645557,0.2193304777414644,0.0476680027627525,1255.7084105723907,17450.87146901532
2.0413609072715144,897.4277668725404,897.3941956796191,0.05720970376461222,0.0,0.17860063160648773,0.219166754295269,0.04766720664355589,1255.593734055827,17470.09669100754
2.054703135423616,897.5144097159799,897.4912397862662,0.057739318348327594,0.0,0.1787642576281273,0.21900262316853034,0.047666407964637,1255.4787717710562,17489.290947071106
2.068045363575717,897.600358567801,897.5872181251864,0.05827024758761528,0.0,0.1789282896035755,0.21883808447517347,0.04766560673568173,1255.3635238059976,17508.45432369647
2.0813875917278186,897.6856444092455,897.6821763494072,0.058802491164465544,0.0,0.1790927274444185,0.21867313830940452,0.04766480296584818,1255.2479902344521,17527.586907945097
2.09472981987992,897.7702970177183,897.7761583266247,0.05933604882244197,0.0,0.1792575710809063,0.21850778474644345,0.04766399666378472,1255.132171116627,17546.688787403273
2.1080720480320214,897.8543450141412,897.8692062092318,0.059870920364390366,0.0,0.17942282046125752,0.21834202384323034,0.047663187837647565,1255.016066499639,17565.760050138037
2.121414276184123,897.9378159084789,897.9613605015859,0.06040710565023005,0.0,0.17958847555098906,0.21817585563910635,0.04766237649511767,1254.8996764180035,17584.80078465513
2.134756504336224,898.0207361435089,898.0526601246307,0.06094460459482429,0.0,0.17975453633227007,0.21800928015647014,0.047661562643417005,1254.7830008941016,17603.81107985881
2.1480987324883256,898.103131136909,898.1431424779691,0.061483417165927076,0.0,0.17992100280329887,0.21784229740141087,0.04766074628932443,1254.6660399386355,17622.791025013543
2.161440960640427,898.185025321732,898.2328434994897,0.06202354338220352,0.0,0.1800878749777024,0.21767490736431852,0.04765992743919089,1254.548793551062,17641.74070970744
2.1747831887925284,898.2664421853364,898.3217977226401,0.06256498331132095,0.0,0.18025515288395688,0.2175071100204723,0.047659106098954136,1254.4312617200162,17660.660223817373
2.18812541694463,898.347404306835,898.4100383314382,0.06310773706810832,0.0,0.18042283656482966,0.21733890533060804,0.04765828227415291,1254.3134444237146,17679.549657475724
2.201467645096731,898.4279333931303,898.497597213308,0.06365180481278124,0.0,0.1805909260768404,0.21717029324146556,0.04765745596994072,1254.1953416303488,17698.409101038662
2.2148098732488326,898.5080503135919,898.5845050098197,0.0641971867492305,0.0,0.18075942148974225,0.21700127368631592,0.047656627191099026,1254.0769532984611,17717.23864505595
2.228152101400934,898.58777513344,898.670791165418,0.06474388312337129,0.0,0.18092832288602065,0.2168318465854706,0.047655795942050064,1253.9582793773097,17736.038380242106
2.2414943295530354,898.6671271459034,898.7564839742273,0.06529189422155085,0.0,0.18109763036041046,0.21666201184677225,0.04765496222686914,1253.8393198072195,17754.808397448996
2.254836557705137,898.7461249031937,898.8416106249824,0.06584122036901269,0.0,0.1812673440194302,0.21649176936606804,0.04765412604929659,1253.7200745199195,17773.548787639702
2.268178785857238,898.824786246357,898.9261972441685,0.06639186192841522,0.0,0.18143746398093225,0.21632111902766665,0.047653287412749254,1253.600543438872,17792.259641863657
2.2815210140093396,898.9031283340603,899.0102689374286,0.06694381929840261,0.0,0.1816079903736698,0.2161500607047783,0.047652446320331526,1253.4807264795852,17810.941051233018
2.294863242161441,898.9811676703684,899.0938498293075,0.06749709291222604,0.0,0.1817789233368782,0.21597859425994018,0.04765160277484615,1253.3606235499187,17829.593106900116
2.3082054703135424,899.0589201315629,899.1769631013917,0.06805168323641314,0.0,0.18195026301987155,0.21580671954542657,0.04765075677880441,1253.2402345503763,17848.215900036124
2.321547698465644,899.1364009920593,899.2596310288976,0.06860759076948401,0.0,0.18212200958165323,0.2156344364036444,0.04764990833443626,1253.119559374389,17866.80952181074
2.334889926617745,899.2136249494773,899.341875015766,0.06916481604071205,0.0,0.18229416319053976,0.21546174466751566,0.047649057443699815,1252.9985979085893,17885.374063372878
2.3482321547698466,899.2906061489178,899.4237156283117,0.06972335960892734,0.0,0.18246672402379796,0.2152886441608457,0.04764820410829071,1252.8773500330733,17903.90961583241
2.361574382921948,899.3673582065014,899.5051726274743,0.07028322206136166,0.0,0.18263969226729468,0.21511513469867977,0.047647348329651014,1252.755815621657,17922.416270242833
2.3749166110740494,899.443894232228,899.5862649997158,0.07084440401253274,0.0,0.18281306811515802,0.21494121608764694,0.04764649010897791,1252.6339945421216,17940.894117584838
2.388258839226151,899.5202268522103,899.667010986607,0.07140690610316658,0.0,0.18298685176945076,0.21476688812629185,0.04764562944723205,1252.5118866564508,17959.34324875082
2.401601067378252,899.5963682303477,899.747428113137,0.07197072899915598,0.0,0.18316104343985393,0.21459215060539638,0.04764476634514559,1252.389491821061,17977.763754530195
2.4149432955303536,899.6723300894962,899.8275332147833,0.07253587339055374,0.0,0.183335643343362,0.21441700330828964,0.04764390080322999,1252.266809887023,17996.155725595592
2.428285523682455,899.7481237322025,899.9073424633721,0.07310233999059944,0.0,0.18351065170398703,0.21424144601114797,0.04764303282178359,1252.1438407002775,18014.51925248985
2.4416277518345564,899.8237600610702,899.9868713917518,0.07367012953477743,0.0,0.18368606875247315,0.21406547848328564,0.04764216240089877,1252.020584101841,18032.854425613743
2.454969979986658,899.8992495988342,900.0661349173165,0.07423924277990528,0.0,0.1838618947260201,0.21388910048743548,0.04764128954046909,1251.8970399280074,18051.16133521459
2.468312208138759,899.9746025082181,900.1451473643883,0.07480968050325051,0.0,0.1840381298680149,0.21371231178002145,0.04764041424019606,1251.773208010545,18069.440071375513
2.4816544362908606,900.0498286116575,900.2239224854733,0.07538144350167496,0.0,0.18421477442777254,0.21353511211142234,0.0476395364995957,1251.649088176881,18087.69072400546
2.494996664442962,900.1249374109774,900.3024734814048,0.07595453259080438,0.0,0.18439182866028392,0.21335750122622782,0.047638656318004936,1251.5246802502877,18105.913382830007
2.5083388925950634,900.1999381071278,900.3808130203805,0.07652894860422249,0.0,0.18456929282597126,0.21317947886348673,0.047637773694587784,1251.3999840500603,18124.108137382802
2.5216811207471648,900.2748396200786,900.4589532558917,0.0771046923926875,0.0,0.18474716719045028,0.21300104475694887,0.047636888628341374,1251.2749993916866,18142.27507699777
2.535023348899266,900.3496506089946,900.5369058435431,0.07768176482336961,0.0,0.1849254520242991,0.2128221986352998,0.04763600111810172,1251.149726087019,18160.414290802033
2.5483655770513676,900.4243794928184,900.6146819567507,0.07826016677910795,0.0,0.18510414760283236,0.2126429402223903,0.04763511116254947,1251.0241639444348,18178.525867709537
2.561707805203469,900.499034471406,900.6922923013016,0.07883989915768526,0.0,0.1852832542058812,0.21246326923745965,0.04763421876021537,1250.8983127689985,18196.609896415393
2.5750500333555704,900.5736235473698,900.7697471287515,0.07942096287111844,0.0,0.18546277211757833,0.21228318539535448,0.047633323909485714,1250.7721723626169,18214.666465390997
2.5883922615076718,900.6481545488099,900.8470562486267,0.08000335884496329,0.0,0.18564270162614638,0.2121026884067432,0.04763242660860762,1250.6457425241933,18232.695662879843
2.601734489659773,900.7226351531248,900.9242290393958,0.08058708801763163,0.0,0.1858230430236911,0.21192177797832654,0.04763152685569418,1250.5190230497774,18250.69757689419
2.6150767178118746,900.797072912125,901.0012744581577,0.08117215133971835,0.0,0.18600379660599684,0.21174045381304493,0.04763062464872961,1250.392013732713,18268.672295212466
2.628418945963976,900.8714752786908,901.0782010489941,0.08175854977333673,0.0,0.18618496267232498,0.2115587156102836,0.047629719985574234,1250.2647143637857,18286.619905377574
2.6417611741160774,900.9458496352488,901.1550169499155,0.08234628429145938,0.0,0.18636654152521362,0.2113765630660757,0.047628812863969514,1250.1371247313677,18304.54049469608
2.6551034022681788,901.0202033243748,901.2317298983295,0.08293535587726251,0.0,0.18654853347027872,0.21119399587330454,0.04762790328154299,1250.009244621562,18322.434150238278
2.66844563042028,901.0945436818663,901.3083472349422,0.08352576552347081,0.0,0.18673093881601507,0.21101101372190567,0.04762699123581321,1249.8810738183479,18340.300958839358
2.6817878585723816,901.1688780726662,901.3848759060058,0.08411751423169976,0.0,0.18691375787359676,0.21082761629906954,0.047626076724194756,1249.7526121037233,18358.141007101636
2.695130086724483,901.2432139300721,901.4613224638017,0.08471060301179302,0.0,0.1870969909566759,0.21064380328944604,0.04762515974400318,1249.6238592578545,18375.95438139786
2.7084723148765844,901.3175587987063,901.5376930652507,0.08530503288115081,0.0,0.18728063838117864,0.21045957437535148,0.04762424029246014,1249.494815059221,18393.741167875898
2.7218145430286858,901.3919203817927,901.6139934685363,0.08590080486404603,0.0,0.18746470046509767,0.21027492923697966,0.04762331836669856,1249.3654792847678,18411.50145246474
2.735156771180787,901.4663065933327,901.6902290276252,0.08649791999092436,0.0,0.18764917752827961,0.21008986755261747,0.047622393963767926,1249.2358517100595,18429.235320882042
2.7484989993328885,901.5407256158558,901.7664046845713,0.08709637929768392,0.0,0.18783406989220644,0.20990438899886738,0.04762146708063975,1249.105932109439,18446.942858643284
2.76184122748499,901.6151859644825,901.8425249595007,0.08769618382493008,0.0,0.1880193778797689,0.20971849325087716,0.047620537714213276,1248.975720256191,18464.624151072818
2.7751834556370913,901.6896965581262,901.9185939381975,0.0882973346172013,0.0,0.18820510181503183,0.20953217998257864,0.04761960586132134,1248.8452159227143,18482.279283316882
2.7885256837891927,901.7642667987392,901.99461525724,0.08889983272216023,0.0,0.18839124202298826,0.20934544886693723,0.04761867151873657,1248.7144188806974,18499.908340358877
2.801867911941294,901.8389066596026,902.0705920866923,0.08950367918974611,0.0,0.18857779882930223,0.2091582995762135,0.047617734683177856,1248.5833289013096,18517.511407037135
2.8152101400933955,901.9136267837494,902.1465271104277,0.09010887507128268,0.0,0.1887647725600377,0.20897073178223838,0.04761679535131725,1248.451945755393,18535.08856806541
2.828552368245497,901.988438593704,902.2224225042672,0.0907154214185373,0.0,0.1889521635413732,0.20878274515670311,0.04761585351978719,1248.3202692136724,18552.639908056448
2.8418945963975983,902.0633544138129,902.2982799122587,0.09132331928272668,0.0,0.18913997209929959,0.20859433937146657,0.04761490918518814,1248.1882990469749,18570.165511548992
2.8552368245496997,902.1383876065239,902.37410042162,0.09193256971346546,0.0,0.18932819855930103,0.20840551409887903,0.04761396234409674,1248.0560350264607,18587.665463038473
2.868579052701801,902.2135527240432,902.4498845371187,0.09254317375765511,0.0,0.18951684324601759,0.20821626901212548,0.04761301299307449,1247.9234769238687,18605.13984701201
2.8819212808539025,902.288865676863,902.5256321560029,0.09315513245831228,0.0,0.18970590648288943,0.2080266037855868,0.047612061128676726,1247.7906245117736,18622.588747987964
2.895263509006004,902.3643439206331,902.6013425450373,0.09376844685333832,0.0,0.18989538859178323,0.20783651809521958,0.047611106747462294,1247.6574775638587,18640.012250560714
2.9086057371581053,902.4400066628637,902.6770143217266,0.09438311797423461,0.0,0.1900852898926022,0.20764601161895255,0.04761014984600347,1247.524035855199,18657.41043945106
2.9219479653102067,902.5158750908603,902.7526454425093,0.09499914684477394,0.0,0.1902756107028823,0.2074550840370965,0.04760919042089635,1247.3902991625532,18674.78339956295
2.935290193462308,902.5919726221188,902.8282332015434,0.0956165344796428,0.0,0.19046635133738038,0.20726373503276316,0.04760822846877133,1247.2562672646648,18692.131216047022
2.9486324216144095,902.668325178145,902.9037742447414,0.09623528188307923,0.0,0.19065751210766027,0.20707196429228572,0.04760726398630377,1247.1219399425593,18709.45397437168
2.961974649766511,902.7449614822738,902.979264604936,0.09685539004753949,0.0,0.1908490933216877,0.20687977150563033,0.04760629697022418,1246.9873169798427,18726.751760402356
2.9753168779186123,902.8219133814968,903.0546997654874,0.0974768599524408,0.0,0.19104109528344862,0.20668715636678395,0.047605327417327856,1246.8523981629744,18744.02466048954
2.9886591060707137,902.8992161915606,903.1300747612768,0.09809969256304311,0.0,0.1912335182926089,0.20649411857409986,0.04760435532448336,1246.7171832815163,18761.272761566306
3.002001334222815,902.9769090636041,903.205384327821,0.09872388882955191,0.0,0.19142636264424204,0.2063006578305744,0.047603380688639,1246.5816721283293,18778.496151255884
3.0153435623749165,903.055035369345,903.2806231111321,0.09934944968654859,0.0,0.1916196286286548,0.20610677384402312,0.047602403506826686,1246.4458644996985,18795.694917989767
3.028685790527018,903.1336431002743,903.3557859528089,0.09997637605288054,0.0,0.1918133165313537,0.20591246632711502,0.04760142377616175,1246.3097601953568,18812.869151136823
3.0420280186791193,903.2127852744431,903.4308682665087,0.1006046688321759,0.0,0.19200742663319956,0.20571773499721394,0.04760044149383768,1246.1733590183728,18830.01894114353
3.0553702468312207,903.2925203422236,903.5058665231355,0.10123432891418073,0.0,0.19220195921081223,0.20552257957596648,0.047599456657113834,1246.036660774851,18847.144379685476
3.068712474983322,903.3729125799588,903.5807788624687,0.10186535717715359,0.0,0.19239691453729538,0.20532699978856372,0.04759846926329437,1245.8996652734058,18864.24555982966
3.0820547031354235,903.4540324576946,903.6556058480764,0.10249775449158849,0.0,0.19259229288336446,0.20513099536259302,0.04759747930969605,1245.7623723243378,18881.322576207014
3.095396931287525,903.5359569644164,903.7303513797665,0.10313152172557051,0.0,0.19278809451896944,0.20493456602638602,0.04759648679360226,1245.6247817384487,18898.37552519406
3.1087391594396263,903.6187698713863,903.8050237728685,0.10376665975209569,0.0,0.19298431971551308,0.204737711506761,0.04759549171220079,1245.4868933254281,18915.40450510192
3.1220813875917277,903.7025619117569,903.8796370058043,0.10440316945870037,0.0,0.19318096874876978,0.20454043152605272,0.047594494062502,1245.3487068917218,18932.409616370525
3.135423615743829,903.7874308530158,903.9542121266019,0.10504105175974184,0.0,0.19337804190260793,0.20434272579832372,0.04759349384123504,1245.2102222378228,18949.390961765017
3.1487658438959305,903.8734814379034,904.0287787947068,0.10568030761164361,0.0,0.19357553947361164,0.20414459402466154,0.04759249104471892,1245.0714391549025,18966.348646570856
3.162108072048032,903.960825170105,904.1033769172734,0.10632093803135959,0.0,0.19377346177667798,0.20394603588748275,0.0475914856687067,1244.9323574207322,18983.282778783258
3.1754503002001333,904.0495799234272,904.1780583199245,0.1069629441182122,0.0,0.19397180915163784,0.2037470510437955,0.04759047770820114,1244.79297679486,19000.193469286012
3.1887925283522347,904.1398693576474,904.2528883723605,0.10760632707912496,0.0,0.19417058197090525,0.20354763911741536,0.04758946715724162,1244.6532970130377,19017.080832014388
3.202134756504336,904.2318221309204,904.3279474714881,0.10825108825709136,0.0,0.19436978064810864,0.2033477996901821,0.047588454008663524,1244.5133177809325,19033.94498409617
3.2154769846564375,904.3255709074424,904.4033322717182,0.1088972291625124,0.0,0.19456940564759093,0.20314753229229135,0.04758743825383296,1244.3730387672051,19050.786045965073
3.228819212808539,904.4212511696517,904.4791565467576,0.10954475150680301,0.0,0.19476945749459773,0.2029468363919264,0.0475864198823615,1244.2324595960847,19067.60414144069
3.2421614409606403,904.5189998558927,904.5555515721878,0.11019365723743056,0.0,0.19496993678589883,0.2027457113844477,0.04758539888180786,1244.091579839631,19084.399397769932
3.2555036691127417,904.6189538562503,904.6326659350916,0.11084394857333014,0.0,0.19517084420052347,0.2025441565814661,0.0475843752373748,1243.950399009908,19101.17194562542
3.268845897264843,904.7212484100237,904.7106647060466,0.11149562803946513,0.0,0.1953721805102346,0.20234217120017983,0.04758334893161121,1243.808916551347,19117.921919057862
3.2821881254169445,904.8260154568927,904.7897279482384,0.11214869849919075,0.0,0.19557394658933647,0.20213975435338916,0.04758231994413032,1243.6671318335939,19134.64945540051
3.295530353569046,904.9333819991814,904.870048584574,0.11280316318305272,0.0,0.19577614342339825,0.2019369050406108,0.04758128825135476,1243.5250441451426,19151.35469512583
3.3088725817211473,905.0434685340275,904.9518296914522,0.1134590257127213,0.0,0.19597877211650108,0.20173362214069407,0.04758025382629917,1243.3826526880384,19168.037781655785
3.3222148098732487,905.1563876114047,905.0352813313792,0.11411629011892278,0.0,0.1961818338966617,0.20152990440628846,0.04757921663839897,1243.2399565739092,19184.698861129444
3.33555703802535,905.2722425673816,905.120617070749,0.11477496085246343,0.0,0.1963853301191581,0.20132575046044365,0.04757817665339272,1243.0969548215144,19201.3380821323
3.3488992661774515,905.3911264716584,905.2080503500472,0.11543504278775328,0.0,0.1965892622675777,0.20112115879552378,0.047577133833262196,1242.9536463559514,19217.95559539381
3.362241494329553,905.5131213161292,905.297790878485,0.11609654121856292,0.0,0.19679363195250474,0.2009161277745191,0.04757608813623196,1242.810030009573,19234.551553459998
3.3755837224816543,905.6382974579969,905.3900412150891,0.116759461846071,0.0,0.19699844090786586,0.20071065563473778,0.04757503951682738,1242.6661045246035,19251.12611034864
3.3889259506337557,905.7667133179214,905.4849936754027,0.11742381075955971,0.0,0.1972036909850401,0.20050474049376663,0.04757398792598731,1242.5218685573752,19267.67942119472
3.402268178785857,905.898415321986,905.5828276710465,0.11808959441035878,0.0,0.1974093841449155,0.20029838035751737,0.04757293331122602,1242.377320684051,19284.211641893547
3.4156104069379585,906.0334380667024,905.6837075528771,0.11875681957981363,0.0,0.19761552244812614,0.20009157313011786,0.04757187561683662,1242.232459407664,19300.722928748353
3.42895263509006,906.1718046792555,905.787780991672,0.11942549334215323,0.0,0.19782210804373487,0.1998843166253797,0.047570814784128224,1242.0872831662757,19317.213438128445
3.4422948632421613,906.313527340856,905.8951778966843,0.12009562302315983,0.0,0.19802914315663392,0.19967660857956307,0.04756975075168784,1241.941790342058,19333.68332614303
3.4556370913942627,906.4586079392219,906.006009844529,0.12076721615550329,0.0,0.19823663007392384,0.19946844666517402,0.047568683455658796,1241.7959792711042,19350.13274833478
3.468979319546364,906.6070388165217,906.1203699699506,0.12144028043150791,0.0,0.19844457113050276,0.19925982850555643,0.047567612830027466,1241.6498482538002,19366.56185939623
3.4823215476984655,906.7588035810788,906.2383332563348,0.12211482365398628,0.0,0.1986529686940563,0.19905075169008452,0.04756653880691136,1241.5033955656145,19382.97081291108
3.495663775850567,906.9138779543056,906.3599571568102,0.12279085368560937,0.0,0.19886182514958872,0.1988412137898107,0.04756546131684243,1241.356619468201,19399.35976112154
3.5090060040026683,907.072230628174,906.4852824753764,0.12346837839710408,0.0,0.19907114288358194,0.19863121237347978,0.04756438028904057,1241.209518220752,19415.72885472222
3.5223482321547697,907.2338241127092,906.6143344403908,0.1241474056143802,0.0,0.19928092426780988,0.19842074502387877,0.0475632956516735,1241.062090091574,19432.07824268018
3.535690460306871,907.3986155570996,906.7471239085872,0.12482794306449993,0.0,0.19949117164277969,0.19820980935454952,0.04756220733209999,1240.9143333699046,19448.40807208051
3.5490326884589725,907.5665575320197,906.8836486457228,0.12550999832021617,0.0,0.19970188730071298,0.1979984030269501,0.047561115257094784,1240.7662463780287,19464.71848799608
3.562374916611074,907.7375987641498,907.0238946382391,0.12619357874262732,0.0,0.19991307346792542,0.19778652376820452,0.04756001935305397,1240.6178274837912,19481.0096333802
3.5757171447631753,907.9116848169182,907.1678373987961,0.12687869142130953,0.0,0.20012473228640698,0.19757416938964031,0.04755891954618031,1240.4690751136463,19497.281648980283
3.5890593729152767,908.0887587141018,907.3154432368875,0.12756534311111,0.0,0.20033686579434876,0.1973613378063662,0.04755781576264888,1240.3199877664138,19513.534673270926
3.602401601067378,908.2687615049323,907.4666704729613,0.12825354016460286,0.0,0.2005494759053073,0.1971480270582,0.04755670792875335,1240.170564027968,19529.768842404414
3.6157438292194795,908.4516327709526,907.621470580822,0.12894328845901779,0.0,0.20076256438563866,0.19693423533231624,0.047555595971034,1240.0208025871061,19545.984290176897
3.629086057371581,908.6373110760643,907.7797892484052,0.12963459331624855,0.0,0.20097613282976978,0.19671996098804412,0.04755447981638835,1239.8707022529077,19562.181148008454
3.6424282855236823,908.8257343620494,907.9415673513462,0.1303274594143265,0.0,0.20119018263280813,0.19650520258431803,0.047553359392165775,1239.7202619739298,19578.359544935316
3.6557705136757837,909.016840292411,908.1067418371775,0.13102189068849796,0.0,0.20140471495991244,0.19628995891035725,0.04755223462624746,1239.5694808596413,19594.51960761256
3.669112741827885,909.2105665477019,908.2752465205907,0.13171789021976385,0.0,0.20161973071176215,0.1960742290202388,0.047551105447112926,1239.4183582045619,19610.66146032595
3.6824549699799864,909.4068510756342,908.4470127921018,0.1324154601084251,0.0,0.20183523048536298,0.19585801227212601,0.047549971783894446,1239.2668935156366,19626.785225011245
3.695797198132088,909.6056322992594,908.6219702437929,0.1331146013298105,0.0,0.20205121452931532,0.195641308373028,0.0475488335664209,1239.1150865434565,19642.89102127991
3.7091394262841892,909.8068492863674,908.8000472166527,0.13381531356894633,0.0,0.20226768269253934,0.19542411743009624,0.04754769072525195,1238.9629373180296,19658.978966449893
3.7224816544362906,910.0104418830499,908.9811712745225,0.13451759503044156,0.0,0.2024846343653028,0.1952064400096132,0.04754654319170408,1238.8104461899052,19675.049175580414
3.735823882588392,910.2163508140882,909.1652696098407,0.13522144221930776,0.0,0.20270206841122315,0.19498827720500178,0.04754539089786928,1238.6576138775793,19691.10176150978
3.7491661107404934,910.4245177525064,909.3522693863443,0.13592684968778457,0.0,0.20291998308871606,0.1947696307153854,0.04754423377662774,1238.5044415222474,19707.136834895264
3.762508338892595,910.6348853602749,909.5420980236864,0.13663380974249617,0.0,0.2031383759601295,0.19455050293645784,0.04754307176165528,1238.3509307511354,19723.15450425414
3.7758505670446962,910.8473973017425,909.7346834285869,0.13734231210547757,0.0,0.20335724378656003,0.19433089706566986,0.04754190478742646,1238.1970837507981,19739.15487600526
3.7891927951967976,911.061998231011,909.9299541767291,0.13805234352158394,0.0,0.2035765824060276,0.1941108172240532,0.047540732789214335,1238.0429033520152,19755.13805451024
3.802535023348899,911.2786337540322,910.1278396491573,0.1387638873037294,0.0,0.20379638659235674,0.19389026859733835,0.04753955570308747,1237.8883931281262,19771.10414211358
3.8158772515010004,911.4972503657749,910.3282701264,0.13947692280619148,0.0,0.20401664989173368,0.19366925759939396,0.04753837346590503,1237.7335575089196,19787.0532391811
3.829219479653102,911.717795362369,910.531176843011,0.1401914248148474,0.0,0.20423736443348506,0.1934477920614442,0.047537186015310706,1237.5784019124862,19802.985444135935
3.8425617078052032,911.9402167276837,910.7364920046631,0.14090736284170746,0.0,0.2044585207111592,0.1932258814509835,0.047535993289725985,1237.4229328977653,19818.900853491392
3.8559039359573046,912.1644629933292,910.944148769372,0.14162470030947336,0.0,0.20468010732947975,0.19300353712481835,0.047534795228343536,1237.267158340871,19834.799561880107
3.869246164109406,912.3904830706024,911.1540811938617,0.1423433936101008,0.0,0.20490211071220302,0.19278077262120683,0.04753359177112137,1237.1110876386672,19850.68166207857
3.8825883922615074,912.6182260524265,911.3662241455262,0.14306339101952326,0.0,0.2051245147653396,0.19255760399663346,0.04753238285877827,1236.9547319434432,19866.547245026413
3.895930620413609,912.8476409828502,911.5805131798961,0.1437846314488532,0.0,0.20534730048963576,0.19233405021332667,0.04753116843279133,1236.7981044329551,19882.396399839614
3.9092728485657102,913.0786765912337,911.7968843829892,0.14450704301062137,0.0,0.20557044553565954,0.19211013358417278,0.04752994843539615,1236.6412206204598,19898.22921381661
3.9226150767178116,913.3112809878172,912.0152741774232,0.14523054137707644,0.0,0.20579392369436256,0.19188588028215617,0.04752872280959044,1236.4840987097195,19914.045772436573
3.935957304869913,913.5454013170138,912.2356190907217,0.1459550279064494,0.0,0.20601770431564126,0.19166132092180332,0.04752749149914179,1236.326760000183,19929.84615934855
3.9492995330220144,913.7809833645135,912.4578554838596,0.1466803875126638,0.0,0.2062417516472882,0.19143649122023956,0.04752625444860036,1236.169229347645,19945.63045635056
3.962641761174116,914.0179711141933,912.6819192378183,0.14740648625461622,0.0,0.20646602408692522,0.1912114327452672,0.04752501160331755,1236.0115356855522,19961.398743357186
3.975983989326217,914.256306250931,912.9077453957864,0.14813316862321896,0.0,0.20669047334015161,0.19098619375723383,0.04752376290947122,1235.853712611665,19977.151098354505
3.9893262174783186,914.4959276059232,913.1352677587244,0.1488602545091066,0.0,0.20691504347960102,0.19076083014999626,0.04752250831409878,1235.6957990437816,19992.887597340785
4.0026684456304205,914.7367705420266,913.3644184324135,0.1495875358413231,0.0,0.20713966990190233,0.19053540649398604,0.047521247765139135,1235.5378399466076,20008.608314251564
4.016010673782522,914.9787662780733,913.5951273248063,0.1503147728981627,0.0,0.2073642781829085,0.19030999718101319,0.0475199812114844,1235.3798871295317,20024.313320867495
4.029352901934623,915.2218411534328,913.8273215937714,0.15104169030814793,0.0,0.20758878283677334,0.19008468766522968,0.04751870860304286,1235.222000111406,20040.002686703476
4.042695130086725,915.4659158373239,914.0609250471924,0.15176797278173104,0.0,0.20781308599147033,0.18985957578765772,0.04751742989081402,1235.0642470435669,20055.676478877624
4.056037358238826,915.7109044917796,914.2958575000298,0.152493260644482,0.0,0.20803707600271096,0.18963477316232766,0.047516145026977145,1234.906705675784,20071.33476195886
4.0693795863909275,915.9567139029357,914.5320340964988,0.1532171452812284,0.0,0.20826062604023077,0.18941040659005667,0.047514853964994073,1234.7494643414773,20086.977597792225
4.082721814543029,916.203242602532,914.769364610076,0.1539391646483889,0.0,0.20848359269523553,0.18918661945107765,0.04751355665972736,1234.592622928196,20102.6050453015
4.09606404269513,916.4503800102294,915.0077527396461,0.15465879906823668,0.0,0.20870581467533122,0.18896357301019376,0.0475122530675741,1234.4362937871385,20118.217160269465
4.109406270847232,916.6980056373066,915.2470954266738,0.15537546758226348,0.0,0.20892711167294617,0.18874144754845096,0.04751094314661576,1234.2806025217847,20133.813995097087
4.122748498999333,916.9459884030584,915.4872822255628,0.1560885252073218,0.0,0.20914728351389128,0.1885204432146825,0.047509626856783525,1234.1256885813177,20149.395598544135
4.136090727151434,917.194186125824,915.7281947668614,0.15679726150123124,0.0,0.2093661097122564,0.18830078047072626,0.04750830416003793,1233.9717055708957,20164.96201545527
4.149432955303536,917.4424452596865,915.9697063598747,0.15750090089432037,0.0,0.20958334957329114,0.18808269998866503,0.047506975020560865,1233.818821180065,20180.513286477413
4.162775183455637,917.6906009536253,916.2116817864437,0.1581986052670857,0.0,0.20979874299327628,0.1878664618510829,0.04750563940495686,1233.6672166254784,20196.049447776182
4.176117411607739,917.9384775100152,916.453977339722,0.15888947923666033,0.0,0.21001201209996534,0.18765234391075392,0.04750429728245925,1233.51708550786,20211.570530761124
4.18945963975984,918.1858893114286,916.6964411591944,0.15957257854060902,0.0,0.21022286385416,0.18744063918919676,0.047502948625135995,1233.3686319992087,20227.07656183147
4.202801867911941,918.4326422668206,916.9389139045571,0.16024692176412483,0.0,0.21043099368878326,0.18723165223772756,0.04750159340808866,1233.2220683070175,20242.567562155586
4.216144096064043,918.6785357991575,917.181229795522,0.16091150544015395,0.0,0.2106360901946164,0.18702569445183978,0.04750023160963694,1233.0776114091236,20258.043547498382
4.229486324216144,918.9233653566242,917.4232180216542,0.1615653222676207,0.0,0.21083784077363008,0.1868230784179758,0.04749886321148105,1232.9354791142885,20273.5045281105
4.242828552368246,919.1669253825738,917.6647044982344,0.16220738186894504,0.0,0.21103593808030327,0.18662411147229138,0.04749748819883398,1232.7958855736651,20288.95050869228
4.256170780520347,919.4090126297435,917.9055139128985,0.16283673317875713,0.0,0.21123008696914353,0.18642908875319605,0.04749610656051647,1232.6590364395151,20304.381488442687
4.269513008672448,919.6494296593754,918.145471977777,0.16345248727446862,0.0,0.21142001157934462,0.1862382861167276,0.047494718289008496,1232.525123928353,20319.7974611997
4.28285523682455,919.8879883336188,918.3844077777039,0.16405383927972894,0.0,0.21160546213177536,0.1860519533395662,0.04749332338045335,1232.394322084546,20335.19841567391
4.296197464976651,920.124513096626,918.6221560911189,0.16464008793735144,0.0,0.21178622100280137,0.18587030804518387,0.04749192183461258,1232.2667825478393,20350.584335771568
4.309539693128753,920.3588438499539,918.8585595594623,0.16521065157994075,0.0,0.21196210768028964,0.18569353074778097,0.047490513654772415,1232.1426310998163,20365.95520099815
4.322881921280854,920.5908382608794,919.0934705937708,0.16576507951444341,0.0,0.2121329822965106,0.18552176131929643,0.04748909884760517,1232.0219652020276,20381.310986928598
4.336224149432955,920.8203733933531,919.3267529319305,0.16630305824070032,0.0,0.21229874755797132,0.18535509705946196,0.047487677422991245,1231.904852651193,20396.651665727037
4.349566377585057,921.0473466124947,919.5582827925889,0.16682441238134407,0.0,0.21245934903410743,0.18519359240697714,0.04748624939380871,1231.7913313780061,20411.97720669671
4.362908605737158,921.2716757752949,919.7879496069366,0.16732910064132164,0.0,0.21261477390359032,0.18503726019305372,0.047484814775698686,1231.6814103207164,20427.287576840525
4.37625083388926,921.493298773844,920.0156563423554,0.1678172074789012,0.0,0.2127650483698301,0.18488607422575457,0.04748337358681506,1231.5750712260556,20442.58274141411
4.389593062041361,921.7121725367929,920.241319458332,0.16828893141609777,0.0,0.2129102340336177,0.18473997291718797,0.047481925847566345,1231.472271176848,20457.862664455337
4.402935290193462,921.9282716170802,920.46486855291,0.1687445710308451,0.0,0.21305042354635012,0.18459886363011904,0.04748047158035705,1231.3729456209212,20473.127309278036
4.416277518345564,922.1415864998208,920.6862457668664,0.1691845096659845,0.0,0.21318573586503314,0.18446262742280692,0.04747901080933441,1231.2770116774973,20488.37663892087
4.429619746497665,922.3521217561713,920.9054050135405,0.16960919978577424,0.0,0.21331631139787213,0.1843311239032598,0.04747754356014525,1231.1843715198058,20503.61061654607
4.442961974649767,922.5598941521994,921.1223110974547,0.17001914774925742,0.0,0.2134423072791897,0.18420419595417245,0.047476069859706226,1231.0949156675642,20518.8292057859
4.456304202801868,922.7649307995915,921.3369387760644,0.1704148995778591,0.0,0.2135638929528402,0.18408167414937568,0.04747458973598983,1231.0085260644773,20534.032371037156
4.469646430953969,922.9672674114422,921.5492718081988,0.17079702810334774,0.0,0.21368124618394926,0.18396338074197272,0.04747310321782704,1230.9250788572524,20549.220077706206
4.482988659106071,923.1669467046098,921.7593020220602,0.171166121712297,0.0,0.2137945495660528,0.18384913315708573,0.04747161033472712,1230.844446829398,20564.3922924083
4.496330887258172,923.364016971455,921.9670284257903,0.17152277476333275,0.0,0.21390398754731305,0.1837387469655365,0.04747011111671436,1230.766501473309,20579.54898312575
4.509673115410274,923.5585308289958,922.1724563752549,0.17186757964766816,0.0,0.21400974396666306,0.18363203834760905,0.04746860559418087,1230.6911147070157,20594.69011932975
4.523015343562375,923.7505441426817,922.3755968070442,0.1722011203903422,0.0,0.21411200006804962,0.18352882607872315,0.04746709379775454,1230.6181602577792,20609.81567207095
4.536357571714476,923.9401151146621,922.5764655396868,0.1725239676445713,0.0,0.21421093294697865,0.18342893308281416,0.04746557575818117,1230.5475147444486,20624.925614043343
4.549699799866578,924.1273035220371,922.7750826425489,0.17283667490924587,0.0,0.21430671437662205,0.18333218760615982,0.04746405150621944,1230.4790584953312,20640.019919625895
4.563042028018679,924.3121700884019,922.9714718695454,0.17313977579364534,0.0,0.21439950995889626,0.1832384240662428,0.04746252107254749,1230.412676139621,20655.098564905704
4.576384256170781,924.494775971477,923.1656601533888,0.1734337821592497,0.0,0.2144894785477213,0.18314748362843905,0.04746098448768026,1230.3482570091649,20670.161527686196
4.589726484322882,924.6751823501504,923.3576771553833,0.17371918298121738,0.0,0.21457677189561,0.18305921455938232,0.04745944178189619,1230.28569538462,20685.20878748318
4.603068712474983,924.8534500954783,923.5475548655196,0.1739964437888664,0.0,0.2146615344799368,0.18297347240065445,0.04745789298517257,1230.2248906164054,20700.240325511375
4.616410940627085,925.0296395117783,923.7353272477178,0.17426600656282712,0.0,0.21474390347092642,0.1828901200007607,0.04745633812712849,1230.1657471469123,20715.256124663294
4.629753168779186,925.2038101356261,923.9210299253207,0.1745282899844817,0.0,0.2148240088089693,0.18280902743778232,0.04745477723697466,1230.1081744565379,20730.256169482414
4.643095396931288,925.3760205822786,924.1046999023212,0.17478368995060556,0.0,0.21490197336424083,0.18273007185972975,0.04745321034346939,1230.0520869523732,20745.2404461319
4.656437625083389,925.5463284306567,924.2863753162217,0.1750325802818502,0.0,0.21497791315647927,0.18265313726474017,0.047451637474880085,1229.9974038149828,20760.208942360052
4.66977985323549,925.7147901394271,924.466095218902,0.17527531356659307,0.0,0.215051937616777,0.1825781142392648,0.047450058658949607,1229.944048815909,20775.16164746346
4.683122081387592,925.8814609880087,924.6438993822396,0.17551222209379708,0.0,0.21512414987699935,0.18250489966863204,0.04744847392286724,1229.8919501159355,20790.09855224853
4.696464309539693,926.0463950374219,924.8198281256301,0.175743618838342,0.0,0.2151946470754923,0.18243339643132359,0.04744688329324344,1229.841040052007,20805.01964899202
4.709806537691795,926.2096451068518,924.9939221629132,0.17596979847052907,0.0,0.21526352067029683,0.18236351308574658,0.04744528679608834,1229.7912549189193,20819.924931401063
4.723148765843896,926.3712627625465,925.1662224665046,0.17619103836799002,0.0,0.21533085675311495,0.18229516355625566,0.04744368445679335,1229.7425347504968,20834.81439457295
4.736490993995997,926.5312983163544,925.3367701468298,0.17640759961388355,0.0,0.21539673635902554,0.18222826682342783,0.04744207630011587,1229.6948231037327,20849.68803495512
4.749833222148099,926.6898008317131,925.5056063453742,0.17661972796945646,0.0,0.21546123576824894,0.18216274662228946,0.04744046235016639,1229.648066848474,20864.545850305396
4.7631754503002,926.8468181353603,925.6727721398901,0.17682765481266813,0.0,0.2155244267973852,0.18209853115107139,0.047438842630398166,1229.602215964451,20879.387839652733
4.776517678452302,927.0023968333749,925.838308460463,0.17703159803716761,0.0,0.21558637707835282,0.18203555279226535,0.04743721716359897,1229.557223346875,20894.214003258632
4.789859906604403,927.156582330459,926.0022560153106,0.1772317629081402,0.0,0.21564715032394632,0.181973747847062,0.04743558597188469,1229.5130446213675,20909.024342579185
4.803202134756504,927.3094188515913,926.1646552253061,0.17742834287311876,0.0,0.21570680657942254,0.18191305628376192,0.04743394907669495,1229.4696379686284,20923.818860227966
4.816544362908606,927.4609494653726,926.3255461663457,0.17762152032708042,0.0,0.21576540245990322,0.18185342150037112,0.04743230649878989,1229.4269639589893,20938.597559939713
4.829886591060707,927.6112161085352,926.484968518774,0.1778114673321598,0.0,0.21582299137369731,0.18179479010127766,0.04743065825824887,1229.3849853967815,20953.360446534858
4.843228819212809,927.7602596111112,926.6429615231671,0.17799834629222008,0.0,0.21587962373180877,0.1817371116877438,0.047429004374278376,1229.3436671744687,20968.107525884952
4.85657104736491,927.908121722633,926.7995637987846,0.17818232497530737,0.0,0.21593534711962178,0.18168033868628308,0.04742734935563011,1229.3029730242417,20982.838804893032
4.869913275517011,928.0548450247936,926.9548137637854,0.17836357398382524,0.0,0.2159902063500233,0.18162442629588268,0.04742570136340327,1229.2628660653706,20997.554291542194
4.883255503669113,928.2004676400317,927.1087498577907,0.17854222973687,0.0,0.2160442437458232,0.1815693322053349,0.04742406044012044,1229.2233168086882,21012.253994814037
4.896597731821214,928.3450266035529,927.2614099238205,0.17871842089430554,0.0,0.21609749936604777,0.18151501636678002,0.04742242648314667,1229.1842974425047,21026.937924620663
4.909939959973316,928.4885579545345,927.4128311827651,0.17889226930814278,0.0,0.21615001115246854,0.18146144084918114,0.04742079939339749,1229.145781626887,21041.606091773967
4.923282188125417,928.6310967620859,927.5630502182477,0.17906389046235727,0.0,0.2162018150661488,0.18140856970178118,0.04741917907527799,1229.1077443985528,21056.258507955743
4.936624416277518,928.7726771507799,927.712102964495,0.17923339388225965,0.0,0.21625294521454377,0.181356368827007,0.04741756543662163,1229.070162082355,21070.89518568866
4.94996664442962,928.913332325708,927.8600246969231,0.17940088351541647,0.0,0.21630343396977386,0.18130480586220044,0.047415958388628776,1229.0330122089122,21085.51613830805
4.963308872581721,929.0530945970443,928.0068500251749,0.17956645808608893,0.0,0.216353312078682,0.18125385006956596,0.0474143578458053,1228.996273437972,21100.12137993451
4.9766511007338226,929.1919954040947,928.1526128883642,0.17973021142497236,0.0,0.2164026087652269,0.1812034722337821,0.04741276372590113,1228.9599254871096,21114.71092544732
4.989993328885924,929.3300653388136,928.2973465523036,0.1798922327759437,0.0,0.21645135182574302,0.181153644566747,0.047411175949849185,1228.923949065404,21129.284790458612
5.003335557038025,929.4673341687985,928.4410836085201,0.18005260708151005,0.0,0.21649956771759113,0.18110434061893282,0.04740959444170444,1228.8883258117148,21143.8429912883
5.016677785190127,929.6038308597506,928.583855974871,0.18021141524843137,0.0,0.21654728164165749,0.18105553519689235,0.047408019128583466,1228.8530382372503,21158.385544939738
5.030020013342228,929.7395835974055,928.7256948975944,0.18036873439496823,0.0,0.21659451761915108,0.18100720428646735,0.04740644994060446,1228.8180696721067,21172.912469076156
5.0433622414943295,929.874619808946,928.8666309546442,0.18052463808109895,0.0,0.21664129856311576,0.18095932498128203,0.047404886810827836,1228.7834042154918,21187.42378199768
5.056704469646431,930.0089661838972,929.0066940601689,0.18067919652295708,0.0,0.21668764634504611,0.180911875416133,0.04740332967519732,1228.7490266893583,21201.919502619152
5.070046697798532,930.1426486945089,929.1459134700036,0.18083247679258097,0.0,0.2167335818569448,0.18086483470493814,0.04740177847248194,1228.714922595218,21216.39965044854
5.083388925950634,930.2756926156417,929.2843177880648,0.18098454300413613,0.0,0.21677912506918187,0.18081818288288265,0.047400233144218554,1228.6810780738754,21230.864245566012
5.096731154102735,930.4081225441693,929.4219349735487,0.18113545648759125,0.0,0.21682429508446047,0.18077190085245975,0.04739869363465527,1228.647479867878,21245.31330860367
5.1100733822548365,930.5399624178967,929.5587923488248,0.181285275950708,0.0,0.21686911018815536,0.18072597033313792,0.04739715989069557,1228.6141152864946,21259.746860725805
5.123415610406938,930.6712355340047,929.694916607941,0.18143405763024234,0.0,0.21691358789530316,0.18068037381437668,0.04739563186184343,1228.5809721730216,21274.164923609867
5.136757838559039,930.8019645670341,929.8303338256587,0.18158185543310784,0.0,0.2169577449944764,0.18063509451175838,0.04739410950014929,1228.548038874265,21288.56751942792
5.150100066711141,930.932171586423,929.9650694669516,0.18172872106832916,0.0,0.21700159758879947,0.18059011632597838,0.04739259276015686,1228.5153042120119,21302.954670828705
5.163442294863242,931.0618780735911,930.0991483968883,0.1818747041702685,0.0,0.21704516113425493,0.18054542380454452,0.047391081598850936,1228.482757456389,21317.326400920232
5.1767845230153435,931.1911049386016,930.2325948908527,0.18201985241395907,0.0,0.21708845047553987,0.18050100210592637,0.0473895759756062,1228.4503883009268,21331.682733252914
5.190126751167445,931.3198725363948,930.365432645038,0.18216421162297494,0.0,0.21713147987960538,0.18045683696602233,0.04738807585213694,1228.4181868392402,21346.023691803224
5.203468979319546,931.448200682605,930.4976847871635,0.18230782587040817,0.0,0.21717426306705534,0.18041291466676554,0.047386581192447735,1228.3861435431982,21360.349300957834
5.216811207471648,931.5761086689778,930.6293738873761,0.1824507375734783,0.0,0.2172168132415691,0.18036922200670769,0.04738509196278519,1228.35424924247,21374.659585498266
5.230153435623749,931.7036152783854,930.7605219692878,0.1825929875821783,0.0,0.21725914311747188,0.18032574627345407,0.04738360813159068,1228.3224951053605,21388.954570586004
5.2434956637758505,931.8307387994524,930.89115052111,0.18273461526235474,0.0,0.21730126494557694,0.18028247521782662,0.04738212966945404,1228.2908726208514,21403.23428174808
5.256837891927952,931.9574970408075,931.0212805068614,0.18287565857372184,0.0,0.21734319053745468,0.18023939702960073,0.047380656549068284,1228.2593735817343,21417.4987448631
5.270180120080053,932.0839073449538,931.1509323776053,0.18301615414299682,0.0,0.2173849312881866,0.18019650031475634,0.04737918874518533,1228.2279900688027,21431.747986147715
5.283522348232155,932.2099866017866,931.2801260826991,0.18315613733267672,0.0,0.21742649819776536,0.1801537740740834,0.04737772623457281,1228.1967144359828,21445.982032143504
5.296864576384256,932.3357512617379,931.4088810810185,0.18329564230553488,0.0,0.2174679018911658,0.18011120768311592,0.04737626899597165,1228.1655392963912,21460.20090970428
5.3102068045363575,932.4612173485903,931.5372163521512,0.18343470208537543,0.0,0.21750915263725307,0.1800687908732292,0.04737481701005502,1228.1344575092025,21474.40464598381
5.323549032688459,932.5864004719434,931.665150407529,0.1835733486141146,0.0,0.21755026036655004,0.18002651371387704,0.047373370259387836,1228.1034621673118,21488.59326842387
5.33689126084056,932.7113158393456,931.7927013014803,0.18371161280549894,0.0,0.21759123468795993,0.17998436659587444,0.04737192872838755,1228.0725465857186,21502.76680474277
5.350233488992662,932.835978268099,931.9198866421848,0.18384952459567555,0.0,0.2176320849045107,0.179942340215658,0.04737049240328584,1228.041704290601,21516.925282924127
5.363575717144763,932.9604021967488,932.0467236025244,0.1839871129908435,0.0,0.21767282002819233,0.17990042556045302,0.04736906127209115,1228.0109290090115,21531.068731206127
5.3769179452968645,933.0846016962589,932.1732289308103,0.1841244061121629,0.0,0.2177134487939426,0.17985861389429295,0.0473676353245523,1227.9802146591728,21545.197178071
5.390260173448966,933.2085904808808,932.2994189613742,0.18426143123805658,0.0,0.21775397967282167,0.17981689674484885,0.04736621455212304,1227.9495553413321,21559.310652234963
5.403602401601067,933.3323819187277,932.4253096250221,0.18439821484416555,0.0,0.2177944208844581,0.17977526589098816,0.04736479894792737,1227.9189453291274,21573.409182638356
5.416944629753169,933.455989042056,932.5509164593334,0.18453478264102474,0.0,0.21783478040878607,0.1797337133510418,0.047363388506726,1227.8883790614414,21587.492798436208
5.43028685790527,933.5794245572628,932.676254618802,0.1846711596096478,0.0,0.2178750659971323,0.17969223137172105,0.04736198322488348,1227.8578511347132,21601.561528989045
5.4436290860573715,933.7027008546073,932.8013388848143,0.18480737003515174,0.0,0.21791528518269426,0.17965081241764433,0.04736058310033636,1227.8273562956695,21615.61540385401
5.456971314209473,933.8258300176586,932.926183675454,0.18494343753851916,0.0,0.21795544529043853,0.17960944916144214,0.04735918813256221,1227.7968894344592,21629.65445277629
5.470313542361574,933.9488238324785,933.0508030551342,0.18507938510662603,0.0,0.2179955534464604,0.1795681344744019,0.04735779832254933,1227.7664455781655,21643.678705680784
5.483655770513676,934.0716937965483,933.1752107440486,0.18521523512066124,0.0,0.21803561658684306,0.17952686141761232,0.04735641367276752,1227.7360198846625,21657.688192664104
5.496997998665777,934.1944511274421,933.2994201274454,0.18535100938302065,0.0,0.2180756414660424,0.1794856232335826,0.04735503418713957,1227.7056076368021,21671.682943986758
5.5103402268178785,934.3171067712518,933.4234442647116,0.18548672914274825,0.0,0.21811563466482004,0.17944441333831299,0.04735365987101344,1227.6752042369187,21685.662990065677
5.52368245496998,934.4396714107736,933.5472958982747,0.1856224151196513,0.0,0.2181556025977634,0.17940322531377834,0.047352290731135435,1227.6448052016144,21699.628361466916
5.537024683122081,934.5621554734627,933.670987462321,0.18575808752714876,0.0,0.21819555152041212,0.17936205290080498,0.04735092677562403,1227.6144061568239,21713.57908889865
5.550366911274183,934.6845691391579,933.7945310913246,0.1858937660939349,0.0,0.21823548753601582,0.17932088999231674,0.047349568013944424,1227.58400283313,21727.515203204348
5.563709139426284,934.8069223475828,933.9179386283874,0.1860294700845046,0.0,0.21827541660193717,0.17927973062693484,0.04734821445688387,1227.5535910613314,21741.436735356237
5.5770513675783855,934.9292248056311,934.0412216333957,0.18616521831865387,0.0,0.21831534453573653,0.17923856898289658,0.047346866116527817,1227.5231667682267,21755.343716448926
5.590393595730487,935.0514859944368,934.1643913909852,0.18630102918994745,0.0,0.21835527702093485,0.1791973993722958,0.047345523006236546,1227.4927259726242,21769.23617769329
5.603735823882588,935.1737151762446,934.2874589183265,0.18643692068330606,0.0,0.2183952196125023,0.1791562162355968,0.04734418514062275,1227.4622647815409,21783.11415041051
5.61707805203469,935.2959214010755,934.4104349727219,0.18657291039167187,0.0,0.21843517774206048,0.1791150141364356,0.04734285253552957,1227.431779386602,21796.977666026367
5.630420280186791,935.418113513194,934.5333300590218,0.1867090155318435,0.0,0.21847515672282544,0.17907378775667965,0.04734152520800938,1227.40126606062,21810.826756065693
5.6437625083388925,935.5403001573934,934.6561544368602,0.18684525295956966,0.0,0.21851516175432006,0.17903253189171797,0.04734020317630327,1227.3707211543308,21824.661452146996
5.657104736490994,935.6624897850857,934.7789181277105,0.1869816391838407,0.0,0.21855519792683684,0.1789912414460015,0.04733888645982103,1227.3401410933088,21838.481785977314
5.670446964643095,935.7846906602205,934.9016309217666,0.18711819038055036,0.0,0.21859527022570396,0.17894991142877933,0.04733757507912187,1227.309522375012,21852.2877893472
5.683789192795197,935.9069108650219,935.0243023846471,0.1872549224054395,0.0,0.21863538353532838,0.17890853695005846,0.04733626905589561,1227.2788615659877,21866.079494125916
5.697131420947298,936.0291583055564,935.1469418639304,0.18739185080645585,0.0,0.21867554264305614,0.1788671132167457,0.047334968412944566,1227.2481552992003,21879.85693225674
5.7104736490993995,936.1514407171366,935.2695584955194,0.18752899083551444,0.0,0.21871575224284667,0.17882563552897607,0.04733367317416593,1227.2174002714912,21893.62013575249
5.723815877251501,936.2737656695622,935.3921612098412,0.18766635745970733,0.0,0.21875601693877483,0.17878409927661268,0.04733238336453473,1227.1865932411572,21907.369136691144
5.737158105403602,936.3961405721977,935.5147587378773,0.18780396537194471,0.0,0.21879634124835642,0.17874249993592414,0.04733109901008727,1227.1557310256492,21921.10396721166
5.750500333555704,936.5185726789118,935.6373596170433,0.18794182900119036,0.0,0.21883672960574618,0.17870083306638793,0.047329820137905265,1227.1248104993642,21934.824659509937
5.763842561707805,936.6410690928527,935.7599721969033,0.18807996252212472,0.0,0.21887718636475856,0.17865909430767252,0.04732854677610018,1227.0938285915552,21948.531245834838
5.7771847898599065,936.763636771091,935.8826046447333,0.18821837986443304,0.0,0.2189177158017705,0.1786172793767361,0.04732727895379835,1227.062782284325,21962.223758484473
5.790527018012008,936.8862825291168,936.0052649509336,0.18835709472165144,0.0,0.21895832211848712,0.1785753840650633,0.04732601670112647,1227.031668610715,21975.90222980252
5.803869246164109,937.0090130451989,936.1279609342868,0.18849612055958684,0.0,0.21899900944457393,0.17853340423603462,0.04732476004919748,1227.0004846528877,21989.56669217469
5.817211474316211,937.1318348646189,936.2507002470801,0.18863547062441266,0.0,0.21903978184018816,0.17849133582239707,0.04732350903009705,1226.969227540375,22003.217178025352
5.830553702468312,937.2547544037669,936.3734903800755,0.1887751579503434,0.0,0.21908064329837867,0.17844917482386607,0.047322263676870396,1226.9378944484217,22016.853719814237
5.8438959306204135,937.3777779541246,936.4963386673494,0.1889151953670348,0.0,0.2191215977474002,0.17840691730481306,0.04732102402350956,1226.9064825963874,22030.476350033263
5.857238158772515,937.5009116861145,936.6192522909902,0.18905559550660228,0.0,0.21916264905290841,0.17836455939207202,0.04731979010494113,1226.8749892462297,22044.085101203505
5.870580386924616,937.6241616528391,936.7422382856649,0.1891963708103498,0.0,0.21920380102006465,0.17832209727283613,0.047318561957014296,1226.8434117010502,22057.68000587222
5.883922615076718,937.7475337937074,936.8653035430592,0.18933753353525098,0.0,0.2192450573955633,0.17827952719263254,0.04731733961648941,1226.811747303694,22071.26109661001
5.897264843228819,937.8710339379448,936.9884548161864,0.1894790957600932,0.0,0.21928642186955394,0.17823684545340132,0.0473161231210268,1226.779993435424,22084.82840600809
5.9106070713809205,937.9946678080005,937.1116987235757,0.1896210693913966,0.0,0.21932789807749298,0.17819404841164538,0.04731491250917608,1226.748147514642,22098.381966675624
5.923949299533022,938.1184410228495,937.2350417533402,0.1897634661690925,0.0,0.21936948960192068,0.17815113247665498,0.047313707820365695,1226.7162069956598,22111.9218112372
5.937291527685123,938.2423591011924,937.3584902671256,0.1899062976719281,0.0,0.21941119997415182,0.17810809410881803,0.047312509094892916,1226.6841693675344,22125.447972330334
5.950633755837225,938.3664274645581,937.4820505039461,0.19004957532269115,0.0,0.21945303267591143,0.17806492981798663,0.047311316373914135,1226.6520321529383,22138.960482603117
5.963975983989326,938.4906514403107,937.605728583908,0.19019331039318293,0.0,0.21949499114089002,0.17802163616192182,0.04731012969943545,1226.6197929070847,22152.459374711943
5.9773182121414274,938.6150362645667,937.7295305118257,0.19033751400902452,0.0,0.2195370787562486,0.17797820974479087,0.04730894911430369,1226.5874492166897,22165.944681319274
5.990660440293529,938.739587085024,937.8534621807344,0.19048219715426934,0.0,0.2195792988640618,0.17793464721572472,0.04730777466219754,1226.5549986989765,22179.416435091527
6.00400266844563,938.8643089636956,937.9775293752924,0.19062737067577742,0.0,0.21962165476268738,0.17789094526744992,0.04730660638761919,1226.5224390007297,22192.87466869705
6.017344896597732,938.9892068795721,938.1017377750932,0.19077304528750108,0.0,0.2196641497081072,0.17784710063494863,0.04730544433588613,1226.4897677973704,22206.319414804104
6.030687124749833,939.1142857311944,938.2260929578731,0.19091923157455165,0.0,0.21970678691520043,0.17780311009418637,0.04730428855312329,1226.456982792076,22219.750706079
6.044029352901934,939.2395503391526,938.3506004026285,0.19106593999713126,0.0,0.2197495695589742,0.17775897046088257,0.04730313908625537,1226.4240817149325,22233.168575184263
6.057371581054036,939.3650054485022,938.4752654926368,0.19121318089429343,0.0,0.21979250077574092,0.17771467858933418,0.04730199598299959,1226.3910623221223,22246.573054776854
6.070713809206137,939.4906557311159,938.6000935183939,0.1913609644875965,0.0,0.21983558366426156,0.1776702313712731,0.04730085929185853,1226.3579223951335,22259.964177506485
6.084056037358239,939.6165057879552,938.7250896804578,0.1915093008845863,0.0,0.21987882128683625,0.17762562573477686,0.047299729062113285,1226.3246597400089,22273.341976013977
6.09739826551034,939.7425601512801,938.8502590922162,0.19165820008219153,0.0,0.21992221667036696,0.17758085864320644,0.04729860534381689,1226.2912721866114,22286.706482929705
6.110740493662441,939.8688232867867,938.9756067825651,0.19180767196996193,0.0,0.2199657728073711,0.1775359270941937,0.04729748818778797,1226.2577575879263,22300.057730872057
6.124082721814543,939.9952995956817,939.1011376985105,0.19195772633320465,0.0,0.22000949265696335,0.17749082811866015,0.047296377645604515,1226.2241138193813,22313.395752446002
6.137424949966644,940.1219934166982,939.2268567076956,0.19210837285603108,0.0,0.22005337914580958,0.17744555877986404,0.04729527376959798,1226.190338778191,22326.720580241683
6.150767178118746,940.248909028043,939.3527686008489,0.19225962112425835,0.0,0.2200974351690348,0.17740011617249296,0.047294176612847634,1226.1564303827274,22340.032246833052
6.164109406270847,940.3760506492911,939.4788780941606,0.19241148062823346,0.0,0.22014166359110743,0.17735449742178025,0.0472930862291749,1226.1223865719126,22353.33078477662
6.177451634422948,940.503422443223,939.6051898315915,0.1925639607655824,0.0,0.22018606724669945,0.17730869968264545,0.047292002673138156,1226.0882053046219,22366.616226610156
6.19079386257505,940.631028517608,939.7317083871117,0.1927170708438523,0.0,0.22023064894151362,0.17726272013886787,0.04729092600002754,1226.0538845591152,22379.88860485152
6.204136090727151,940.7588729269276,939.8584382668713,0.19287082008303646,0.0,0.22027541145307367,0.17721655600229694,0.047289856265860006,1226.0194223324913,22393.14795199753
6.217478318879253,940.8869596740576,939.9853839113105,0.1930252176180752,0.0,0.2203203575315069,0.17717020451207002,0.04728879352737455,1225.9848166401468,22406.394300522825
6.230820547031354,941.0152927118964,940.1125496972061,0.19318027250126316,0.0,0.22036548990029758,0.17712366293385978,0.0472877378420276,1225.9500655152563,22419.627682878825
6.244162775183455,941.1438759449429,940.2399399396564,0.19333599370455262,0.0,0.22041081125700762,0.17707692855915372,0.04728668926798858,1225.9151670082751,22432.848131492705
6.257505003335557,941.2727132308299,940.3675588940091,0.1934923901218116,0.0,0.22045632427398315,0.17702999870454836,0.04728564786413563,1225.8801191864502,22446.055678766425
6.270847231487658,941.4018083818127,940.4954107577305,0.19364947057100423,0.0,0.2205020315990367,0.1769828707110674,0.04728461369005148,1225.8449201333513,22459.250357075794
6.28418945963976,941.531165166219,940.6234996722254,0.19380724379635184,0.0,0.22054793585612328,0.17693554194348607,0.04728358680601945,1225.8095679484018,22472.432198769584
6.297531687791861,941.6607873098492,940.751829724598,0.19396571847036534,0.0,0.22059403964597588,0.17688800978969596,0.04728256727301964,1225.7740607464407,22485.60123616863
6.310873915943962,941.7906784973401,940.8804049493629,0.19412490319585424,0.0,0.22064034554673426,0.1768402716600766,0.047281555152725224,1225.738396657289,22498.75750156506
6.324216144096064,941.9208423734926,941.0092293301096,0.1942848065079059,0.0,0.22068685611456357,0.17679232498687744,0.04728055050749889,1225.7025738253196,22511.901027221476
6.337558372248165,942.0512825445543,941.1383068011137,0.19444543687575044,0.0,0.22073357388423778,0.17674416722363442,0.04727955340038938,1225.6665904090576,22525.031845370195
6.350900600400267,942.182002579476,941.2676412489083,0.19460680270465985,0.0,0.22078050136973326,0.1766957958445769,0.04727856389512821,1225.6304445807682,22538.149988212546
6.364242828552368,942.3130060111225,941.3972365138022,0.19476891233771132,0.0,0.2208276410647802,0.17664720834407638,0.04727758205612645,1225.5941345260749,22551.25548791817
6.377585056704469,942.4442963374573,941.5270963913628,0.19493177405757695,0.0,0.22087499544342193,0.17659840223608755,0.04727660794847163,1225.557658443574,22564.348376624363
6.390927284856571,942.5758770226919,941.65722463385,0.1950953960882385,0.0,0.22092256696055093,0.17654937505361246,0.047275641637924845,1225.521014544464,22577.428686435447
6.404269513008672,942.7077514984007,941.7876249516137,0.1952597865966559,0.0,0.22097035805243032,0.17650012434817927,0.0472746831909178,1225.4842010521838,22590.496449422175
6.417611741160774,942.8399231646109,941.9183010144502,0.19542495369441598,0.0,0.22101837113720885,0.17645064768932742,0.047273732674550074,1225.4472162020584,22603.551697621147
6.430953969312875,942.9723953908616,942.0492564529222,0.1955909054393543,0.0,0.22106660861542765,0.1764009426641011,0.047272790156586524,1225.4100582409458,22616.594463034282
6.444296197464976,943.1051715172289,942.1804948596388,0.19575764983708874,0.0,0.22111507287049934,0.1763510068765703,0.04727185570545461,1225.372725426907,22629.624777628283
6.457638425617078,943.23825485533,942.312019790502,0.19592519484257878,0.0,0.22116376626919496,0.17630083794734397,0.04727092939024197,1225.3352160288696,22642.64267333417
6.470980653769179,943.371648689301,942.4438347659202,0.19609354836163664,0.0,0.22121269116211578,0.1762504335130983,0.047270011280694024,1225.2975283262995,22655.64818204677
6.484322881921281,943.505356276743,942.5759432719851,0.1962627182523791,0.0,0.22126184988414682,0.1761997912261234,0.04726910144721165,1225.2596606088887,22668.64133562432
6.497665110073382,943.6393808496528,942.7083487616202,0.19643271232670614,0.0,0.2213112447549181,0.17614890875386208,0.047268199960848994,1225.2216111762334,22681.622165888024
6.511007338225483,943.7737256153183,942.8410546556935,0.19660353835168484,0.0,0.22136087807923685,0.1760977837784777,0.04726730689331125,1225.183378337537,22694.59070462165
6.524349566377585,943.9083937572025,942.974064344105,0.19677520405096394,0.0,0.22141075214752876,0.17604641399641283,0.04726642231695263,1225.1449604113043,22707.546983571163
6.537691794529686,944.0433884357974,943.1073811868434,0.19694771710613415,0.0,0.22146086923626263,0.17599479711796492,0.04726554630477433,1225.1063557250445,22720.491034444378
6.551034022681788,944.1787127894626,943.2410085150143,0.19712108515808463,0.0,0.22151123160837324,0.1759429308668632,0.04726467893042259,1225.0675626149816,22733.422888910613
6.564376250833889,944.3143699352344,943.3749496318393,0.19729531580828708,0.0,0.22156184151366226,0.17589081297986792,0.047263820268186804,1225.0285794257736,22746.342578600383
6.57771847898599,944.4503629696289,943.5092078136369,0.19747041662015197,0.0,0.22161270118922072,0.17583844120634767,0.04726297039299774,1224.9894045102226,22759.250135105103
6.591060707138092,944.5866949694108,943.6437863107673,0.19764639512025514,0.0,0.22166381285981193,0.17578581330789658,0.047262129380425726,1224.9500362290055,22772.145589976804
6.604402935290193,944.7233689923529,943.7786883485602,0.19782325879961007,0.0,0.2217151787382678,0.17573292705793792,0.047261297306678954,1224.910472950402,22785.028974727913
6.617745163442295,944.8603880779782,943.9139171282185,0.19800101511492874,0.0,0.221766801025882,0.1756797802413309,0.04726047424860186,1224.8707130500209,22797.90032083096
6.631087391594396,944.9977552482785,944.049475827696,0.1981796714898095,0.0,0.22181868191278004,0.17562637065400027,0.047259660283673476,1224.830754910542,22810.759659718402
6.644429619746497,945.1354735084228,944.1853676025556,0.1983592353159586,0.0,0.22187082357830007,0.17557269610255583,0.0472588554900059,1224.7905969214544,22823.60702278239
6.657771847898599,945.2735458474463,944.321595586807,0.19853971395437417,0.0,0.2219232281913616,0.1755187544039232,0.04725805994634275,1224.750237478798,22836.442441374613
6.6711140760507,945.4119752389253,944.4581628937216,0.19872111473651338,0.0,0.2219758979108291,0.17546454338498038,0.04725727373205774,1224.7096749849122,22849.26594680607
6.684456304202802,945.550764641635,944.5950726166292,0.19890344496543813,0.0,0.22202883488586883,0.17541006088220057,0.04725649692715319,1224.6689078481875,22862.07757034699
6.697798532354903,945.6899170001955,944.7323278296949,0.19908671191695684,0.0,0.2220820412563045,0.1753553047412966,0.04725572961225864,1224.627934482819,22874.877343226613
6.711140760507004,945.8294352457038,944.869931588679,0.19927092284075967,0.0,0.2221355191529705,0.17530027281686716,0.04725497186862955,1224.5867533085607,22887.66529663313
6.724482988659106,945.9693222963489,945.0078869316761,0.19945608496149855,0.0,0.2221892706980483,0.17524496297206063,0.04725422377814587,1224.545362750491,22900.441461713508
6.737825216811207,946.1095810580196,945.1461968798415,0.19964220547991463,0.0,0.22224329800541728,0.1751893730782237,0.04725348542331084,1224.5037612387698,22913.205869573456
6.751167444963309,946.2502144248949,945.2848644380964,0.1998292915739011,0.0,0.22229760318098568,0.1751335010145705,0.047252756887249656,1224.461947208408,22925.95855127729
6.76450967311541,946.3912252800231,945.4238925958199,0.2000173503995634,0.0,0.22235218832302014,0.17507734466785257,0.0472520382537082,1224.4199190990382,22938.69953784787
6.777851901267511,946.5326164958909,945.5632843275235,0.20020638909228375,0.0,0.22240705552247728,0.17502090193202727,0.04725132960705194,1224.3776753546836,22951.428860266577
6.791194129419613,946.6743909349824,945.703042593515,0.20039641476777556,0.0,0.22246220686333162,0.17496417070792958,0.04725063103226458,1224.335214423531,22964.146549473207
6.804536357571714,946.816551450322,945.843170340541,0.20058743452308836,0.0,0.2225176444228879,0.17490714890295922,0.04724994261494695,1224.2925347577125,22976.852636365984
6.8178785857238156,946.9591008860133,945.9836705024225,0.2007794554376547,0.0,0.2225733702721071,0.1748498344307548,0.04724926444131591,1224.249634813079,22989.547151801526
6.831220813875917,947.1020420777605,946.1245460006705,0.20097248457426745,0.0,0.22262938647591,0.17479222521088972,0.04724859659820302,1224.2065130489884,23002.23012659481
6.844563042028018,947.2453778533877,946.2657997450948,0.2011665289800994,0.0,0.22268569509349428,0.17473431916855475,0.047247939173053644,1224.1631679280856,23014.901591519214
6.85790527018012,947.3891110333409,946.4074346343946,0.2013615956876651,0.0,0.22274229817863378,0.17467611423425855,0.047247292253925585,1224.1195979160934,23027.561577306486
6.871247498332221,947.5332444311883,946.5494535567412,0.20155769171581864,0.0,0.22279919777998833,0.17461760834351744,0.04724665592948818,1224.075801481597,23040.210114646794
6.8845897264843225,947.6777808541046,946.6918593903453,0.20175482407068834,0.0,0.22285639594139453,0.17455879943656438,0.04724603028902103,1224.031777095841,23052.84723418875
6.897931954636424,947.8227231033534,946.8346550040173,0.2019529997466561,0.0,0.22291389470217016,0.17449968545804428,0.04724541542241303,1223.9875232325187,23065.472966539448
6.911274182788525,947.9680739747553,946.977843257712,0.20215222572728142,0.0,0.22297169609740106,0.17444026435672644,0.04724481142016116,1223.9430383675701,23078.087342264505
6.924616410940627,948.1138362591505,947.1214270030645,0.20235250898623433,0.0,0.2230298021582312,0.17438053408521426,0.04724421837336951,1223.8983209789815,23090.690391888173
6.937958639092728,948.2600127428536,947.2654090839159,0.20255385648821037,0.0,0.22308821491214723,0.17432049259966065,0.04724363637374808,1223.8533695465856,23103.28214589333
6.9513008672448295,948.4066062080993,947.4097923368291,0.2027562751898471,0.0,0.22314693638326272,0.1742601378594829,0.04724306551361176,1223.8081825518652,23115.862634721634
6.964643095396931,948.5536194334838,947.5545795915947,0.20295977204062157,0.0,0.22320596859259736,0.1741994678270833,0.04724250588587919,1223.7627584777567,23128.431888773575
6.977985323549032,948.7010551943952,947.6997736717277,0.20316435398374175,0.0,0.22326531355835377,0.17413848046757183,0.0472419575840717,1223.7170958084582,23140.989938408577
6.991327551701134,948.8489162634397,947.8453773949535,0.20337002795702716,0.0,0.22332497329619103,0.17407717374849246,0.047241420702312194,1223.6711930292386,23153.536813945106
7.004669779853235,948.9972054108574,947.9913935736869,0.20357680089376068,0.0,0.22338494981948917,0.17401554563955776,0.047240895335323975,1223.6250486262522,23166.072545660794
7.0180120080053365,949.1459254049377,948.1378250155033,0.20378467972357764,0.0,0.2234452451396255,0.17395359411237254,0.04724038157842974,1223.5786610863463,23178.597163792558
7.031354236157438,949.2950790124202,948.2846745235978,0.20399367137328403,0.0,0.22350586126622865,0.17389131714017916,0.047239879527550335,1223.5320288968855,23191.110698536708
7.044696464309539,949.4446689988962,948.4319448972403,0.2042037827677175,0.0,0.22356680020744576,0.17382871269758982,0.047239389279203674,1223.4851505455629,23203.613180049124
7.058038692461641,949.5946981292004,948.5796389322205,0.20441502083055918,0.0,0.22362806397019505,0.1737657787603337,0.047238910930503565,1223.4380245202249,23216.10463844538
7.071380920613742,949.7451691677999,948.7277594212867,0.20462739248518433,0.0,0.22368965456042939,0.17370251330499262,0.0472384445791585,1223.3906493086877,23228.58510380089
7.0847231487658435,949.8960848791701,948.8763091545753,0.20484090465542684,0.0,0.22375157398337417,0.17363891430876283,0.04723799032347054,1223.3430233985705,23241.054606151105
7.098065376917945,950.0474480281734,949.0252909200335,0.20505556426640265,0.0,0.2238138242437828,0.17357497974919905,0.04723754826233399,1223.2951452771165,23253.51317549162
7.111407605070046,950.1992613804291,949.1747075038381,0.20527137824530586,0.0,0.2238764073461839,0.17351070760396664,0.04723711849523426,1223.2470134310229,23265.960841778415
7.124749833222148,950.3515277026769,949.3245616908034,0.20548835352217726,0.0,0.22393932529511998,0.17344609585060236,0.04723670112224654,1223.1986263462707,23278.397634927995
7.138092061374249,950.5042497631359,949.474856264785,0.20570649703067717,0.0,0.22400258009538745,0.17338114246627379,0.04723629624403458,1223.1499825079597,23290.823584817583
7.1514342895263505,950.6574303318592,949.6255940090755,0.2059258157088488,0.0,0.2240661737522736,0.17331584542754205,0.04723590396184935,1223.1010804001423,23303.238721285332
7.164776517678452,950.8110721810821,949.7767777067955,0.20614631649986023,0.0,0.22413010827178703,0.17325020271013047,0.04723552437752769,1223.0519185056623,23315.6430741305
7.178118745830553,950.9651780855667,949.9284101412787,0.20636800635275543,0.0,0.22419438566089078,0.1731842122886909,0.047235157593491006,1223.0024953059913,23328.03667311369
7.191460973982655,951.1197508229404,950.0804940964472,0.2065908922231719,0.0,0.22425900792772532,0.17311787213658045,0.047234803712743786,1222.9528092810745,23340.419547957026
7.204803202134756,951.2747931740312,950.2330323571875,0.20681498107407092,0.0,0.2243239770818353,0.17305118022563382,0.04723446283887231,1222.902858909172,23352.791728344397
7.2181454302868575,951.4303079231967,950.3860277097145,0.2070402798764386,0.0,0.22438929513438707,0.17298413452594505,0.04723413507604307,1222.852642666705,23365.15324392167
7.231487658438959,951.5862978586509,950.5394829419349,0.20726679560999878,0.0,0.22445496409839033,0.17291673300564564,0.04723382052900131,1222.8021590281032,23377.504124296935
7.24482988659106,951.7427657727845,950.6934008438017,0.20749453526389516,0.0,0.2245209859889099,0.1728489736306919,0.047233519303069585,1222.7514064656564,23389.844399040707
7.258172114743162,951.8997144624809,950.8477842076651,0.20772350583736604,0.0,0.2245873628232753,0.17278085436465476,0.04723323150414605,1222.700383449366,23402.174097686202
7.271514342895263,952.0571467294294,951.0026358286179,0.2079537143404263,0.0,0.22465409662129257,0.1727123731685073,0.047232957238702994,1222.6490884467994,23414.493249729578
7.2848565710473645,952.215065380435,951.157958504838,0.2081851677945297,0.0,0.22472118940545002,0.1726435280004181,0.04723269661378511,1222.5975199229451,23426.801884630157
7.298198799199466,952.3734732277202,951.3137550379209,0.2084178732332072,0.0,0.22478864320111677,0.17257431681555258,0.04723244973700784,1222.5456763400744,23439.100031810714
7.311541027351567,952.5323730892266,951.4700282332121,0.20865183770271462,0.0,0.22485646003674353,0.17250473756587087,0.04723221671655565,1222.4935561576008,23451.38772065771
7.324883255503669,952.6917677889113,951.6267809001337,0.20888706826266834,0.0,0.2249246419440606,0.1724347881999295,0.047231997661180206,1222.4411578319412,23463.664980521597
7.33822548365577,952.8516601570393,951.7840158525048,0.20912357198665585,0.0,0.22499319095826745,0.172364466662691,0.04723179268019862,1222.388479816384,23475.931840717032
7.3515677118078715,953.0120530304712,951.9417359088585,0.2093613559628477,0.0,0.22506210911822294,0.17229377089533296,0.04723160188349152,1222.3355205609562,23488.188330523204
7.364909939959973,953.1729492529504,952.099943892756,0.20960042729461112,0.0,0.2251313984666361,0.17222269883505648,0.04723142538150116,1222.2822785122894,23500.434479184085
7.378252168112074,953.3343516753821,952.2586426330924,0.20984079310108453,0.0,0.22520106105024487,0.17215124841490675,0.047231263285229426,1222.2287521134965,23512.67031590872
7.391594396264176,953.4962631561143,952.4178349644045,0.21008246051777918,0.0,0.22527109892000302,0.17207941756358525,0.047231115706235845,1222.1749398040374,23524.895869871503
7.404936624416277,953.6586865612082,952.5775237271666,0.21032543669712753,0.0,0.2253415141312509,0.17200720420527832,0.04723098275663544,1222.120840019605,23537.111170212498
7.4182788525683785,953.8216247647123,952.7377117680896,0.21056972880906155,0.0,0.22541230874389526,0.17193460625947643,0.04723086454909667,1222.066451191994,23549.316246037695
7.43162108072048,953.9850806489276,952.8984019404105,0.21081534404155503,0.0,0.22548348482257813,0.1718616216408048,0.047230761196839145,1222.0117717489877,23561.51112641935
7.444963308872581,954.1490571046746,953.0595971041831,0.21106228960118306,0.0,0.22555504443685095,0.17178824825884811,0.047230672813631476,1221.9568001142331,23573.69584039625
7.458305537024683,954.3135570315492,953.2213001265592,0.21131057271361964,0.0,0.2256269896613294,0.1717144840179951,0.04723059951378885,1221.901534707134,23585.87041697404
7.471647765176784,954.4785833381853,953.3835138820709,0.2115602006241986,0.0,0.2256993225758682,0.17164032681726268,0.04723054141217076,1221.8459739427285,23598.03488512555
7.4849899933288855,954.6441389425069,953.5462412529076,0.21181118059840576,0.0,0.22577204526571437,0.17156577455014219,0.047230498624178455,1221.7901162315816,23610.189273791068
7.498332221480987,954.8102267719786,953.7094851291877,0.2120635199223846,0.0,0.22584515982166492,0.1714908251044405,0.04723047126575251,1221.7339599796765,23622.33361187868
7.511674449633088,954.9768497638568,953.8732484092299,0.21231722590344185,0.0,0.2259186683402244,0.17141547636212187,0.04723045945337025,1221.6775035883031,23634.467928264607
7.52501667778519,955.1440108654309,954.0375339998171,0.2125723058705115,0.0,0.22599257292374955,0.17133972619916213,0.047230463304043034,1221.620745453957,23646.592251793496
7.538358905937291,955.3117130342683,954.2023448164615,0.2128287671746495,0.0,0.22606687568060385,0.17126357248539373,0.04723048293531363,1221.5636839682331,23658.706611278776
7.5517011340893925,955.4799592384536,954.3676837836624,0.2130866171894944,0.0,0.22614157872530088,0.1711870130843607,0.047230518465253335,1221.5063175177238,23670.81103550297
7.565043362241494,955.6487524568238,954.5335538351628,0.21334586331172067,0.0,0.2262166841786464,0.17111004585317657,0.047230570012459235,1221.44864448392,23682.905553218032
7.578385590393595,955.8180956792,954.6999579142006,0.21360651296147073,0.0,0.226292194167873,0.17103266864238817,0.04723063769605113,1221.390663243118,23694.990193145684
7.591727818545697,955.9879919066237,954.8668989737612,0.21386857358283476,0.0,0.22636811082678995,0.1709548792958249,0.04723072163566864,1221.3323721663153,23707.06498397777
7.605070046697798,956.1584441515782,955.0343799768206,0.21413205264422733,0.0,0.22644443629590139,0.1708766756504799,0.04723082195146804,1221.2737696191266,23719.12995437657
7.6184122748498995,956.3294554382205,955.2024038965925,0.2143969576388637,0.0,0.2265211727225549,0.1707980555363603,0.047230938764119136,1221.214853961681,23731.185132975173
7.631754503002001,956.5010288025968,955.3709737167634,0.21466329608510926,0.0,0.22659832226105125,0.17071901677637646,0.047231072194801986,1221.1556235485455,23743.230548377804
7.645096731154102,956.6731672928692,955.5400924317357,0.21493107552693738,0.0,0.22667588707278769,0.17063955718619792,0.047231222365203565,1221.0960767286258,23755.26622916018
7.658438959306204,956.8458739695283,955.7097630468581,0.21520030353428496,0.0,0.22675386932636937,0.17055967457414073,0.04723138939751436,1221.0362118450867,23767.292203869867
7.671781187458305,957.0191519056127,955.8799885786603,0.2154709877034701,0.0,0.22683227119774035,0.17047936674103545,0.04723157341442487,1220.9760272352637,23779.308501026637
7.6851234156104065,957.1930041869148,956.0507720550773,0.21574313565751851,0.0,0.2269110948702864,0.17039863148012369,0.04723177453912197,1220.9155212305889,23791.315149122805
7.698465643762508,957.3674339121987,956.2221165156803,0.21601675504659112,0.0,0.22699034253496878,0.17031746657692273,0.0472319928952853,1220.8546921564987,23803.312176623625
7.711807871914609,957.542444193401,956.3940250118968,0.21629185354829086,0.0,0.2270700163904212,0.17023586980912805,0.0472322286070834,1220.793538332367,23815.29961196762
7.725150100066711,957.718038155842,956.5665006072336,0.21656843886805738,0.0,0.22715011864307388,0.17015383894648795,0.04723248179916992,1220.7320580714186,23827.277483566966
7.738492328218812,957.8942189384235,956.7395463774917,0.21684651873947086,0.0,0.2272306515072491,0.17007137175070677,0.04723275259667962,1220.6702496806624,23839.245819807835
7.7518345563709135,958.0709896938322,956.9131654109842,0.21712610092460852,0.0,0.22731161720527399,0.16998846597533146,0.047233041125224313,1220.6081114608132,23851.204649050796
7.765176784523015,958.2483535887395,957.0873608087497,0.21740719321437452,0.0,0.22739301796758427,0.16990511936564634,0.04723334751088872,1220.5456417062198,23863.15399963116
7.778519012675116,958.4263138039938,957.2621356847595,0.2176898034287973,0.0,0.2274748560328185,0.1698213296585779,0.04723367188022619,1220.4828387048005,23875.093899859367
7.791861240827218,958.6048735348174,957.4374931661281,0.21797393941735455,0.0,0.22755713364792082,0.16973709458259104,0.047234014360254366,1220.4197007379703,23887.02437802134
7.805203468979319,958.7840359909982,957.6134363933182,0.21825960905927158,0.0,0.22763985306823556,0.16965241185759314,0.04723437507845072,1220.3562260805754,23898.945462378888
7.8185456971314204,958.9638043970801,957.7899685203446,0.21854682026382602,0.0,0.22772301655760363,0.16956727919483666,0.04723475416274797,1220.2924130008284,23910.857181170086
7.831887925283522,959.1441819925512,957.967092714974,0.21883558097062453,0.0,0.22780662638845067,0.1694816942968298,0.04723515174152944,1220.228259760246,23922.759562609623
7.845230153435623,959.3251720320261,958.1448121589233,0.21912589914987046,0.0,0.22789068484187233,0.16939565485724997,0.04723556794362425,1220.1637646135896,23934.65263488919
7.858572381587725,959.5067777854354,958.3231300480578,0.21941778280266452,0.0,0.22797519420772966,0.16930915856084736,0.04723600289830244,1220.0989258088,23946.53642617791
7.871914609739826,959.689002538204,958.5020495925842,0.21971123996124728,0.0,0.22806015678472685,0.16922220308336575,0.04723645673526998,1220.0337415869442,23958.41096462266
7.885256837891927,959.8718495914331,958.6815740172428,0.22000627868926675,0.0,0.22814557488049678,0.1691347860914562,0.04723692958466362,1219.9682101821568,23970.2762783485
7.898599066044029,960.0553222620797,958.8617065614989,0.22030290708203631,0.0,0.22823145081168328,0.16904690524259305,0.047237421577045725,1219.9023298215807,23982.132395459048
7.91194129419613,960.2394238831303,959.0424504797289,0.22060113326675934,0.0,0.22831778690401378,0.16895855818500044,0.047237932843398896,1219.8360987253209,23993.979344036856
7.925283522348232,960.424157803777,959.2238090414071,0.22090096540277132,0.0,0.22840458549237683,0.16886974255757317,0.04723846351512049,1219.7695151063888,24005.817152143827
7.938625750500333,960.6095273895938,959.4057855312908,0.2212024116817926,0.0,0.2284918489209035,0.16878045598979435,0.047239013724017044,1219.7025771706478,24017.645847821583
7.951967978652434,960.7955360227039,959.5883832496011,0.2215054803281192,0.0,0.22857957954302938,0.1686906961016721,0.04723958360229864,1219.635283116769,24029.465459091887
7.965310206804536,960.9821871019511,959.7716055122032,0.22181017959885616,0.0,0.22866777972156999,0.16860046050366254,0.04724017328257297,1219.567631136182,24041.27601395701
7.978652434956637,961.1694834700991,959.9554553249097,0.2221165137970249,0.0,0.22875645059074692,0.1685097480346434,0.0472407828978409,1219.4996202751981,24053.07754039902
7.991994663108739,961.3574272116524,960.1399352120225,0.22242448233496057,0.0,0.22884559176537267,0.16841855905275036,0.04724141258152481,1219.4312506375618,24064.870066348933
8.005336891260841,961.5460237392314,960.3250496268339,0.22273410745068314,0.0,0.2289352099471173,0.1683268868290733,0.04724206246739184,1219.3625173910282,24076.65361973923
8.018679119412942,961.7352765221684,960.5108019590573,0.22304539747886767,0.0,0.22902530751970568,0.16823472895245997,0.047242732689563936,1219.293418709651,24088.428228499164
8.032021347565044,961.9251890470091,960.6971956141039,0.22335836079081964,0.0,0.22911588687744278,0.16814208300099917,0.04724342338253112,1219.2239527594081,24100.193920540558
8.045363575717145,962.1157648177026,960.8842340133101,0.22367300579452748,0.0,0.22920695042523379,0.1680489465419995,0.04724413468114481,1219.1541176981918,24111.950723758182
8.058705803869247,962.3070073557875,961.0719205941598,0.2239893409347135,0.0,0.22929850057860363,0.16795531713196832,0.047244866720611,1219.0839116757932,24123.69866603011
8.072048032021348,962.4989202005765,961.2602588105007,0.22430737469288434,0.0,0.22939053976371637,0.16786119231659083,0.04724561963648328,1219.0133328338918,24135.437775218197
8.08539026017345,962.6915069093369,961.4492521327575,0.2246271155873793,0.0,0.2294830704173943,0.1677665696307099,0.047246393564655736,1218.942379306045,24147.1680791684
8.09873248832555,962.8847710574671,961.6389040481387,0.224948572173418,0.0,0.22957609498713663,0.16767144659830566,0.047247188641355756,1218.871049217674,24158.88960571125
8.112074716477652,963.078716238673,961.8292180608416,0.22527175304314614,0.0,0.22966961593113802,0.1675758207324756,0.047248005003136605,1218.7993406860546,24170.602382662182
8.125416944629754,963.2733460651384,962.020197692251,0.2255966668256804,0.0,0.22976363571830663,0.1674796895354153,0.04724884278686999,1218.7272518203051,24182.30643782202
8.138759172781855,963.4686641676964,962.2118464811356,0.22592332218715133,0.0,0.22985815682828173,0.16738305049839894,0.047249702129738336,1218.6547807213772,24194.00179897732
8.152101400933956,963.6646741959951,962.4041679838402,0.22625172783074543,0.0,0.2299531817514513,0.16728590110176042,0.04725058316922707,1218.581925482044,24205.68849390081
8.165443629086058,963.8613798186636,962.5971657744741,0.22658189249674512,0.0,0.230048712988969,0.16718823881487507,0.04725148604311663,1218.5086841868908,24217.36655035178
8.178785857238159,964.0587847234734,962.7908434450962,0.22691382496256715,0.0,0.23014475305277066,0.16709006109614125,0.047252410889474454,1218.4350549123055,24229.035996076513
8.19212808539026,964.2568926175001,962.9852046058983,0.22724753404279932,0.0,0.23024130446559055,0.16699136539296275,0.047253357846646665,1218.36103572647,24240.69685880868
8.205470313542362,964.455707227281,963.1802528853823,0.2275830285892362,0.0,0.2303383697609773,0.16689214914173148,0.04725432705324979,1218.2866246893486,24252.34916626974
8.218812541694463,964.6552322989724,963.3759919305377,0.22792031749091218,0.0,0.2304359514833092,0.16679240976781032,0.04725531864816215,1218.2118198526832,24263.992946169394
8.232154769846565,964.8554715985041,963.5724254070146,0.22825940967413366,0.0,0.23053405218780915,0.16669214468551657,0.047256332770515226,1218.136619259983,24275.62822620595
8.245496997998666,965.0564289117328,963.7695569992943,0.22860031410250886,0.0,0.23063267444055943,0.16659135129810587,0.04725736955968478,1218.0610209465153,24287.25503406678
8.258839226150767,965.258108044593,963.9673904108579,0.2289430397769762,0.0,0.2307318208185156,0.16649002699775645,0.04725842915528193,1217.9850229393007,24298.87339742869
8.272181454302869,965.4605128232475,964.1659293643511,0.22928759573583068,0.0,0.2308314939095202,0.16638816916555374,0.047259511697143916,1217.9086232571042,24310.483343958396
8.28552368245497,965.663647094236,964.3651776017489,0.22963399105474827,0.0,0.2309316963123159,0.16628577517147577,0.04726061732532482,1217.8318199104294,24322.084901312875
8.298865910607072,965.8675147246215,964.5651388845166,0.22998223484680838,0.0,0.2310324306365584,0.1661828423743784,0.04726174618008609,1217.7546109015118,24333.67809713984
8.312208138759173,966.0721196021367,964.7658169937682,0.23033233626251468,0.0,0.2311336995028284,0.16607936812198187,0.04726289840188691,1217.6769942243125,24345.262959078107
8.325550366911274,966.277465635328,964.967215730425,0.23068430448981328,0.0,0.23123550554264335,0.16597534975085707,0.04726407413137433,1217.5989678645137,24356.83951475807
8.338892595063376,966.4835567536992,965.16933891537,0.23103814875410947,0.0,0.23133785139846877,0.16587078458641263,0.04726527350937335,1217.5205297995126,24368.407791802067
8.352234823215477,966.6903969078534,965.3721903896012,0.23139387831828181,0.0,0.23144073972372878,0.16576566994288275,0.047266496676876754,1217.4416779984176,24379.967817824843
8.365577051367579,966.8979900696343,965.5757740143852,0.23175150248269477,0.0,0.23154417318281642,0.165660003123315,0.047267743775034766,1217.3624104220435,24391.51962043394
8.37891927951968,967.1063402322663,965.7800936714057,0.23211103058520857,0.0,0.23164815445110298,0.165553781419559,0.04726901494514458,1217.2827250229088,24403.06322723015
8.392261507671781,967.3154514104938,965.9851532629128,0.23247247200118706,0.0,0.23175268621494743,0.16544700211225577,0.047270310328639674,1217.2026197452317,24414.59866580789
8.405603735823883,967.5253276407184,966.1909567118707,0.23283583614350323,0.0,0.23185777117170447,0.16533966247082726,0.047271630067079,1217.122092524926,24426.125963755694
8.418945963975984,967.7359729811379,966.3975079621025,0.23320113246254193,0.0,0.23196341202973256,0.1652317597534667,0.04727297430213589,1217.0411412896024,24437.645148656567
8.432288192128086,967.9473915118818,966.6048109784355,0.2335683704462014,0.0,0.23206961150840108,0.1651232912071297,0.047274343175586916,1216.9597639585627,24449.156248088453
8.445630420280187,968.1595873351465,966.8128697468442,0.23393755961989118,0.0,0.2321763723380972,0.16501425406752535,0.047275736829300474,1216.877958442802,24460.65928962464
8.458972648432288,968.3725645753323,967.0216882745923,0.23430870954652855,0.0,0.23228369726023182,0.16490464555910844,0.04727715540522523,1216.7957226450053,24472.1543008342
8.47231487658439,968.5863273791757,967.2312705903736,0.2346818298265318,0.0,0.232391589027245,0.16479446289507207,0.047278599045378296,1216.7130544595484,24483.641309282404
8.485657104736491,968.8008799158847,967.441620744452,0.23505693009781153,0.0,0.2325000504026108,0.16468370327734108,0.047280067891833415,1216.6299517724988,24495.120342531143
8.498999332888593,969.0162263772712,967.6527428088002,0.23543402003575892,0.0,0.23260908416084122,0.16457236389656574,0.047281562086708674,1216.546412461615,24506.591428139367
8.512341561040694,969.232370977884,967.8646408772375,0.23581310935323158,0.0,0.23271869308749,0.16446044193211637,0.047283081772154324,1216.4624343963487,24518.054593663517
8.525683789192795,969.4493179551404,968.0773190655673,0.236194207800537,0.0,0.23282887997915513,0.16434793455207866,0.04728462709034019,1216.3780154378476,24529.509866657925
8.539026017344897,969.6670715694585,968.2907815117119,0.2365773251654128,0.0,0.23293964764348116,0.1642348389132494,0.04728619818344296,1216.2931534389552,24540.957274675275
8.552368245496998,969.8856361043876,968.5050323758488,0.23696247127300474,0.0,0.23305099889916034,0.16412115216113315,0.0472877951936333,1216.207846244217,24552.396845267005
8.5657104736491,970.1050158667397,968.7200758405452,0.23734965598584162,0.0,0.23316293657593362,0.1640068714299395,0.04728941826306277,1216.1220916898826,24563.828605983752
8.579052701801201,970.3252151867191,968.9359161108914,0.2377388892038075,0.0,0.23327546351459028,0.16389199384258094,0.04729106753385053,1216.0358876039095,24575.252584375776
8.592394929953302,970.5462384180526,969.1525574146336,0.23813018086411133,0.0,0.23338858256696743,0.16377651651067154,0.0472927431480698,1215.9492318059683,24586.668807993392
8.605737158105404,970.7680899381196,969.3700040023073,0.23852354094125305,0.0,0.23350229659594854,0.16366043653452642,0.047294445247734185,1215.862122107449,24598.0773043874
8.619079386257505,970.9907741480805,969.5882601473678,0.23891897944698712,0.0,0.23361660847546079,0.16354375100316176,0.04729617397478382,1215.7745563114665,24609.478101109496
8.632421614409607,971.2142954730064,969.8073301463228,0.23931650643028293,0.0,0.23373152109047218,0.1634264569942961,0.047297929471071205,1215.6865322128658,24620.871225712748
8.645763842561708,971.4386583620071,970.0272183188612,0.23971613197728203,0.0,0.23384703733698767,0.16330855157435162,0.04729971187834692,1215.5980475982321,24632.256705751974
8.65910607071381,971.6638672883598,970.2479290079849,0.24011786621125264,0.0,0.23396316012204438,0.16319003179845687,0.04730152133824512,1215.5091002458967,24643.63456878421
8.67244829886591,971.8899267496375,970.4694665801378,0.24052171929254046,0.0,0.23407989236370622,0.1630708947104499,0.0473033579922688,1215.4196879259468,24655.004842369137
8.685790527018012,972.1168412678368,970.6918354253345,0.24092770141851713,0.0,0.23419723699105735,0.16295113734288244,0.047305221981774864,1215.3298084002342,24666.367554069493
8.699132755170114,972.3446153895059,970.9150399572902,0.2413358228235246,0.0,0.23431519694419534,0.1628307567170248,0.047307113447959,1215.2394594223847,24677.72273145153
8.712474983322215,972.5732536858714,971.1390846135477,0.24174609377881653,0.0,0.2344337751742227,0.16270974984287145,0.0473090325318403,1215.1486387378109,24689.070402085425
8.725817211474316,972.8027607529666,971.3639738556066,0.24215852459249684,0.0,0.2345529746432383,0.16258811371914783,0.047310979374245686,1215.057344083721,24700.41059354574
8.739159439626418,973.0331412117591,971.5897121690501,0.24257312560945396,0.0,0.23467279832432747,0.16246584533331765,0.04731295411579417,1214.9655731891328,24711.743333411832
8.75250166777852,973.2643997082766,971.8163040636731,0.2429899072112924,0.0,0.23479324920155104,0.1623429416615914,0.04731495689688078,1214.8733237748854,24723.068649268294
8.76584389593062,973.4965409137353,972.0437540736077,0.24340887981626053,0.0,0.2349143302699342,0.1622193996689353,0.04731698785766042,1214.780593553654,24734.3865687054
8.779186124082722,973.729569524666,972.2720667574521,0.24383005387917478,0.0,0.23503604453545346,0.16209521630908177,0.04731904713803137,1214.6873802299622,24745.69711931951
8.792528352234823,973.9634902630412,972.501246698395,0.24425343989134063,0.0,0.2351583950150234,0.16197038852454024,0.04732113487761868,1214.5936815001985,24757.000328713548
8.805870580386925,974.198307876402,972.7312985043429,0.24467904838046933,0.0,0.23528138473648208,0.16184491324660924,0.04732325121575725,1214.4994950526327,24768.29622449741
8.819212808539026,974.4340271379853,972.9622268080464,0.245106889910592,0.0,0.23540501673857564,0.16171878739538934,0.04732539629147474,1214.40481856743,24779.584834288395
8.832555036691128,974.670652846849,973.1940362672245,0.2455369750819688,0.0,0.23552929407094197,0.16159200787979713,0.04732757024347427,1214.3096497166714,24790.86618571166
8.845897264843229,974.908189828,973.426731564692,0.24596931453099458,0.0,0.23565421979409287,0.16146457159758001,0.04732977321011683,1214.2139861643695,24802.140306400644
8.85923949299533,975.1466429325199,973.6603174084829,0.24640391893010125,0.0,0.2357797969793959,0.16133647543533236,0.04733200532940353,1214.1178255664886,24813.40722399751
8.872581721147432,975.3860170376915,973.8947985319769,0.2468407989876556,0.0,0.23590602870905453,0.16120771626851238,0.0473342667389576,1214.0211655709643,24824.666966153574
8.885923949299533,975.626317047126,974.1301796940242,0.24727996544785366,0.0,0.2360329180760877,0.16107829096145998,0.04733655757600614,1213.9240038177238,24835.919560529757
8.899266177451635,975.8675478908879,974.3664656790698,0.2477214290906107,0.0,0.23616046818430803,0.16094819636741603,0.04733887797736168,1213.8263379387088,24847.16503479701
8.912608405603736,976.1097145256228,974.6036612972788,0.2481652007314473,0.0,0.23628868214829907,0.16081742932854212,0.04734122807940345,1213.728165557895,24858.40341663675
8.925950633755837,976.3528219346836,974.8417713846609,0.24861129122137135,0.0,0.23641756309339146,0.16068598667594225,0.04734360801805854,1213.6294842913182,24869.634733741314
8.939292861907939,976.5968751282556,975.080800803195,0.24905971144675562,0.0,0.2365471141556376,0.16055386522968468,0.04734601792878264,1213.5302917470965,24880.85901381439
8.95263509006004,976.8418791434844,975.3207544409529,0.2495104723292113,0.0,0.23667733848178563,0.16042106179882568,0.04734845794654073,1213.430585525457,24892.07628457145
8.965977318212142,977.0878390446015,975.5616372122248,0.24996358482545702,0.0,0.23680823922925204,0.160287573181434,0.04735092820578742,1213.3303632187597,24903.286573740188
8.979319546364243,977.3347599230503,975.8034540576424,0.2504190599271836,0.0,0.23693981956609306,0.1601533961646167,0.04735342884044712,1213.2296224115253,24914.489909060972
8.992661774516344,977.5826468976127,976.0462099443037,0.2508769086609142,0.0,0.23707208267097465,0.16001852752454604,0.0473559599838939,1213.1283606804634,24925.68631828728
9.006004002668446,977.8315051145353,976.2899098658969,0.2513371420878601,0.0,0.2372050317331417,0.15988296402648763,0.04735852176893122,1213.026575594501,24936.875829186138
9.019346230820547,978.0813397476555,976.534558842824,0.2517997713037714,0.0,0.23733866995238548,0.15974670242483005,0.047361114327771285,1212.9242647148112,24948.058469538555
9.032688458972649,978.3321559985282,976.7801619223255,0.252264807438784,0.0,0.2374730005390101,0.1596097394631152,0.047363737792014346,1212.8214255948458,24959.23426713998
9.04603068712475,978.5839590965511,977.0267241786038,0.25273226165726065,0.0,0.23760802671379766,0.15947207187407061,0.047366392292627506,1212.7180557803645,24970.40324980072
9.059372915276851,978.8367542990907,977.2742507129469,0.25320214515762746,0.0,0.23774375170797157,0.15933369637964248,0.04736907795992357,1212.6141528094706,24981.56544534641
9.072715143428953,979.0905468916093,977.5227466538523,0.25367446917220576,0.0,0.23788017876315923,0.15919460969103047,0.04737179492353942,1212.509714212642,24992.72088161843
9.086057371581054,979.3453421877894,977.7722171571502,0.2541492449670382,0.0,0.23801731113135252,0.15905480850872392,0.04737454331241433,1212.4047375127675,25003.869586474364
9.099399599733156,979.6011455296604,978.0226674061277,0.25462648384171055,0.0,0.23815515207486757,0.15891428952253903,0.04737732325476787,1212.2992202251833,25015.01158778843
9.112741827885257,979.8579622877236,978.274102611652,0.25510619712916716,0.0,0.2382937048663024,0.15877304941165782,0.047380134878077705,1212.1931598577087,25026.146913451943
9.126084056037358,980.1157978610779,978.526528012294,0.2555883961955219,0.0,0.23843297278849368,0.1586310848446687,0.04738297830905708,1212.0865539106858,25037.275591373735
9.13942628418946,980.374657677545,978.7799488744512,0.25607309243986315,0.0,0.2385729591344711,0.1584883924796082,0.04738585367363207,1211.9793998770172,25048.397649480616
