z,T,t,fs,fl,x,y,w,rhob,p
0.0,634.416794549485,505.0,0.0,0.0,0.16090768335030667,0.23690029805530327,0.04773139918438562,1268.0,14330.0
0.025031289111389236,655.0265760816272,536.624700303331,7.466986755750911e-05,0.0,0.16093084838819377,0.23687713301644756,0.04773139918285387,1267.9838533869986,14358.523172514431
0.05006257822277847,673.7880020180031,565.3111693329087,0.0001762900065915331,0.0,0.16096237427667567,0.2368456071222908,0.047731399173880085,1267.961879043207,14388.382740007191
0.0750938673341677,690.9012670178315,591.3953247018976,0.00030682832287679223,0.0,0.16100287150512596,0.23680510986948428,0.04773139913536464,1267.9336514165502,14419.461098901496
0.10012515644555695,706.5390364429223,615.1634809207719,0.0004673939576642495,0.0,0.161052684110786,0.23675529718151092,0.047731399005199494,1267.8989306322264,14451.649629936277
0.1251564455569462,720.8512475904647,636.8617183940597,0.0006584107401457951,0.0,0.1611119434534544,0.23669603760818075,0.04773139864044549,1267.857624962943,14484.84812525443
0.1501877346683354,733.9688947696328,656.7030941341897,0.000879779221494511,0.0,0.16118061843343584,0.23662736207153243,0.047731397760167465,1267.8097557592882,14518.964209968337
0.17521902377972465,746.0070471557124,674.8732736118213,0.0011310147364627385,0.0,0.1612585582633293,0.2365494210513164,0.04773139587786636,1267.7554275582008,14553.912777262523
0.2002503128911139,757.0672801847093,691.5349875339623,0.0014113591158741708,0.0,0.1613455270651975,0.23646244994486856,0.04773139223354901,1267.6948038889686,14589.615447694656
0.22528160200250313,767.2396534434512,706.8316005635774,0.0017198681834998235,0.0,0.16144123096503782,0.23636674193665555,0.04773138573682718,1267.6280883216673,14626.000058246756
0.2503128911138924,776.6043340508546,720.889999586405,0.002055478753982416,0.0,0.1615453388463086,0.2362626272220041,0.04773137493094989,1267.5555099597818,14663.000183559225
0.2753441802252816,785.2329401000785,733.8229540557201,0.0024170590452636744,0.0,0.16165749798223306,0.2361504573693494,0.04773135798418996,1267.4773125342977,14700.554689882658
0.3003754693366708,793.1896609501175,745.7310620706361,0.00280344603451492,0.0,0.16177734564351504,0.23603059372569532,0.04773133271068026,1267.39374633729,14738.607321144164
0.32540675844806005,800.5321980624508,756.7043679682408,0.003213472716385828,0.0,0.16190451759756228,0.23590339894790077,0.04773129661866071,1267.305062354088,14777.10631586247
0.3504380475594493,807.3125603322039,766.8237169362277,0.003645987646582477,0.0,0.16203865423382205,0.23576923092184654,0.047731246980853334,1267.2115080758024,14816.004053283492
0.37546933667083854,813.5777405331778,776.1618972160276,0.0040998686443300915,0.0,0.1621794048900219,0.2356284384900812,0.04773118091967755,1267.113324583087,14855.256726934413
0.4005006257822278,819.3702939287696,784.7846093305672,0.004574032104556322,0.0,0.1623264308223378,0.23548135853985863,0.04773109549929486,1267.0107445830013,14894.824043739349
0.425531914893617,824.7288358327474,792.7512933768139,0.005067439032253893,0.0,0.1624794071578892,0.23532831410834873,0.04773098781686365,1266.9039911542338,14934.668946857986
0.45056320400500627,829.6884716026735,800.1158390308043,0.00557909864640121,0.0,0.1626380240867995,0.23516961324372987,0.047730855086594026,1266.793277013935,14974.75736047116
0.4755944931163955,834.2811699738752,806.9271979973,0.006108070195936117,0.0,0.1628019874889896,0.23500554842400712,0.04773069471187753,1266.6788041646287,15015.057954825355
0.5006257822277848,838.5360886174055,813.2299148215903,0.00665346347326789,0.0,0.1629710191437872,0.23483639638364764,0.04773050434260315,1266.560763814632,15055.541929949097
0.5256570713391739,842.4798592017363,819.0645889948654,0.007214438391140861,0.0,0.1631448566348313,0.23466241823481798,0.047730281916497266,1266.439336492252,15096.182816560551
0.5506883604505632,846.1368379585824,824.468278927814,0.007790203897761389,0.0,0.1633232530358221,0.23448385979785039,0.04773002568476609,1266.3146922944545,15136.956292792265
0.5757196495619524,849.5293267259079,829.4748564926512,0.00838001643619712,0.0,0.16350597644222908,0.23430095207667526,0.04772973422338675,1266.1869912262034,15177.840015462576
0.6007509386733416,852.6777686111263,834.115319332198,0.008983178101897164,0.0,0.16369280939848735,0.2341139118309728,0.047729406432073525,1266.0563835983128,15218.813464722294
0.6257822277847309,855.6009217430008,838.4180669237564,0.009599034612727313,0.0,0.16388354825826104,0.23392294220895574,0.04772904152327962,1265.923010460369,15259.857800998427
0.6508135168961201,858.3160140297472,842.40914540308,0.01022697317608818,0.0,0.1640780025061476,0.2337282334139381,0.04772863900364967,1265.787004051765,15300.955733243787
0.6758448060075094,860.8388814294134,846.1124654104985,0.010866420645509729,0.0,0.16427599416456312,0.2335299632823856,0.047728198650194543,1265.648488187241,15342.091397582068
0.7008760951188986,863.184822843765,849.5510336276427,0.01152282487461751,0.0,0.16447921338617813,0.23332644167246336,0.0477277204802172,1265.5062848323923,15383.250260558158
0.7259073842302879,865.3671639246262,852.7449210947153,0.01219550510646469,0.0,0.16468744920033626,0.233117879692785,0.0477272047120408,1265.3605413139255,15424.41906450399
0.7509386733416771,867.3976026251071,855.7117855063441,0.0128787724440218,0.0,0.16489893711341713,0.23290604209992363,0.04772665176164381,1265.2124880272704,15465.58560127997
0.7759699624530664,869.2875287787109,858.4687510428624,0.013572195081507851,0.0,0.16511354369945758,0.23269106268386935,0.04772606220482887,1265.0622186621915,15506.738680755734
0.8010012515644556,871.0474464881615,861.0315961212134,0.014275370045612043,0.0,0.16533114459183557,0.23247306625795908,0.047725436748146444,1264.9098207455063,15547.868062372183
0.8260325406758448,872.687047968981,863.4148674879078,0.014987921522432703,0.0,0.16555162394228845,0.23225216918416136,0.04772477620407035,1264.755375989236,15588.964380796824
0.851063829787234,874.2152805069367,865.6319834108587,0.015709499144377276,0.0,0.16577487386948198,0.23202847991020994,0.04772408146838739,1264.5989606486391,15630.01907738591
0.8760951188986232,875.6404072855173,867.695327201284,0.01643977636795574,0.0,0.16600079393785847,0.2318020994779381,0.047723353499927894,1264.4406458618669,15671.024336993061
0.9011264080100125,876.970062729932,869.616332116243,0.017178448941749604,0.0,0.16622929066654998,0.23157312200303606,0.04772259330264929,1264.280497971415,15711.973029701854
0.9261576971214017,878.211302934464,871.405558558692,0.017925233462673256,0.0,0.16646027706770813,0.23134163512683595,0.04772180191000387,1264.1185788277353,15752.85865709403
0.951188986232791,879.3706516716455,873.0727643778415,0.018679866017832704,0.0,0.16669367221330372,0.2311077204409925,0.04772098037146689,1263.9549460755247,15793.675302696316
0.9762202753441802,880.4541424228862,874.6269689748578,0.019442100908741423,0.0,0.16692940082924926,0.23087145388610728,0.047720129741066875,1263.7896534233037,15834.417586277574
1.0012515644555695,881.4673568193489,876.0765118349348,0.020211709454308602,0.0,0.16716739291557517,0.2306329061254534,0.047719251067742156,1263.622750896962,15875.080621694333
1.0262828535669586,882.4154598378465,877.4291060343282,0.020988478868819632,0.0,0.1674075833913247,0.23039214289502138,0.04771834538734038,1263.4542850779937,15915.659978006848
1.0513141426783479,883.3032320582552,878.6918872082695,0.021772211211045278,0.0,0.167649911762806,0.23014922533113072,0.04771741371607946,1263.2842993271497,15956.15164361014
1.0763454317897372,884.1350992555883,879.8714584112915,0.022562722400613126,0.0,0.16789432181384895,0.22990421027685154,0.04771645704529574,1263.1128339942545,15996.5519931446
1.1013767209011265,884.9151595707206,880.9739312541591,0.023359841297831817,0.0,0.1681407613167384,0.2296571505684597,0.04771547633731511,1262.9399266149176,16036.857756969619
1.1264080100125156,885.6472084781823,882.0049636602705,0.02416340884325647,0.0,0.1683891817625381,0.22940809530311568,0.04771447252229632,1262.7656120948595,16077.065993000704
1.1514392991239049,886.3347617469927,882.9697945482111,0.024973277253411218,0.0,0.16863953810957238,0.22915709008891377,0.04771344649590856,1262.5899228825547,16117.174060726402
1.1764705882352942,886.9810765706917,883.8732757153739,0.02578930926923021,0.0,0.16889178854888906,0.22890417727839946,0.04771239911771996,1262.4128891308621,16157.179597235752
1.2015018773466832,887.5891710252445,884.7199011696036,0.02661137745393635,0.0,0.1691458942855876,0.2286493961866011,0.04771133121018664,1262.234538848297,16197.080495100374
1.2265331664580725,888.1618419980006,885.5138341311325,0.027439363537240066,0.0,0.16940181933496004,0.2283927832945674,0.04771024355814488,1262.054898040561,16236.874881967493
1.2515644555694618,888.7016817171371,886.2589319052495,0.02827315780290558,0.0,0.16965953033245273,0.22813437243934837,0.04770913690872123,1261.8739908429275,16276.561101731468
1.2765957446808511,889.2110929987821,886.9587688067697,0.029112658516896504,0.0,0.16991899635651814,0.227874194991303,0.047708011971585994,1261.6918396440356,16316.137697161754
1.3016270337922402,889.6923033180944,887.6166573001586,0.029957771393472818,0.0,0.17018018876348462,0.22761228001956593,0.04770686941948548,1261.508465201634,16355.603393874793
1.3266583229036295,890.1473778008361,888.2356675038213,0.03080840909676757,0.0,0.17044308103362818,0.22734865444645283,0.04770570988899767,1261.3238867507757,16394.957085546033
1.3516896120150188,890.5782312232305,888.8186451933717,0.03166449077552139,0.0,0.1707076486276841,0.22708334319153758,0.04770453398146343,1261.1381221049364,16434.19782026642
1.376720901126408,890.9866391000705,889.3682284264328,0.03252594162879643,0.0,0.17097386885308616,0.22681636930608695,0.0477033422640528,1260.9511877505101,16473.32478795512
1.4017521902377972,891.3742479339966,889.8868629005356,0.03339269250062835,0.0,0.1712417207392706,0.22654775409849395,0.04770213527093187,1260.763098935103,16512.33730874704
1.4267834793491865,891.742584692518,890.3768161458041,0.034264679501703935,0.0,0.17151118492142542,0.22627751725131165,0.04770091350450112,1260.5738697500203,16551.234822280156
1.4518147684605758,892.0930655735893,890.8401906451679,0.035141843656276726,0.0,0.17178224353210955,0.22600567693044696,0.04769967743668104,1260.3835132073243,16590.016877813297
1.4768460575719649,892.4270041154092,891.2789359668722,0.03602413057264757,0.0,0.17205488010020425,0.22573224988703874,0.04769842751022465,1260.1920413118075,16628.68312511066
1.5018773466833542,892.7456187017477,891.6948599872977,0.03691149013563078,0.0,0.17232907945669276,0.22545725155251461,0.047697164140040195,1259.9994651282236,16667.23330603356
1.5269086357947435,893.050039509179,892.0896392745288,0.037803876219559836,0.0,0.17260482764680748,0.22518069612727792,0.047695887714510395,1259.8057948440673,16705.667246785644
1.5519399249061328,893.3413149392035,892.4648286978698,0.038701246420462056,0.0,0.1728821118481096,0.2249025966634529,0.04769459859679703,1259.6110398282092,16743.98485076107
1.5769712140175218,893.6204175747062,892.8218703230629,0.039603561806123275,0.0,0.17316092029409644,0.22462296514208738,0.047693297126121935,1259.4152086856411,16782.186091949337
1.6020025031289111,893.8882496969588,893.1621016480055,0.040510786682849666,0.0,0.17344124220296084,0.2243418125451842,0.047691983619017456,1259.2183093086,16820.27100885399
1.6270337922403004,894.1456483964703,893.4867632293154,0.04142288837781282,0.0,0.17372306771115206,0.2240591489229084,0.04769065837054098,1259.0203489243015,16858.239698885718
1.6520650813516895,894.3933903083414,893.7970057460323,0.042339837035937994,0.0,0.17400638781141167,0.22377498345629357,0.04768932165544928,1258.8213341395035,16896.09231319341
1.6770963704630788,894.6321960003495,894.0938965430496,0.043261605430364315,0.0,0.1742911942949813,0.2234893245157499,0.04768797372933005,1258.6212709821134,16933.829051899487
1.702127659574468,894.8627340397818,894.3784256934914,0.04418816878557023,0.0,0.1745774796976988,0.2232021797156551,0.04768661482968824,1258.4201649400338,16971.45015970849
1.7271589486858574,895.0856247629997,894.6515116161568,0.045119504612317826,0.0,0.17486523724971928,0.22291355596529092,0.04768524517698634,1258.2180209974242,17008.95592186025
1.7521902377972465,895.3014437698644,894.9140062813306,0.04605559255362591,0.0,0.17515446082861558,0.2226234595163711,0.04768386497563777,1258.0148436685529,17046.34666040114
1.7772215269086358,895.5107251634454,895.1667000356706,0.046996414241034054,0.0,0.17544514491562943,0.222331896007389,0.04768247441495353,1257.8106370293983,17083.62273074895
1.802252816020025,895.7139645538739,895.4103260745024,0.04794195316046946,0.0,0.1757372845548597,0.22203887050499818,0.04768107367004231,1257.6054047471487,17120.784518528955
1.8272841051314141,895.9116218437614,895.6455645876783,0.04889219452707355,0.0,0.1760308753151897,0.221744387542626,0.04767966290266505,1257.399150107738,17157.832436660094
1.8523153942428034,896.1041238112883,895.8730466031525,0.049847125168388885,0.0,0.17632591325476796,0.22144845115650458,0.0476782422620447,1257.1918760415517,17194.766922672276
1.8773466833541927,896.2918665058494,896.0933575505845,0.05080673341534598,0.0,0.17662239488786988,0.22115106491929404,0.047676811885632504,1256.9835851474181,17231.588436236852
1.902377972465582,896.4752174700324,896.3070405655925,0.051771009000527946,0.0,0.17692031715397943,0.22085223197145865,0.04767537189983229,1256.7742797150077,17268.297456893997
1.9274092615769711,896.6545178006686,896.5145995537176,0.05273994296322453,0.0,0.17721967738894145,0.22055195505054698,0.0476739224206841,1256.5639617457382,17304.894481961706
1.9524405506883604,896.830084060761,896.7165020317229,0.053713527560820866,0.0,0.17752047329804366,0.2202502365185176,0.04767246355450873,1256.3526329722897,17341.38002461259
1.9774718397997497,897.002210053213,896.9131817625338,0.05469175618609519,0.0,0.17782270293089886,0.21994707838724079,0.04767099539851503,1256.140294876823,17377.754612105415
2.002503128911139,897.1711684664878,897.1050411988971,0.05567462329002947,0.0,0.1781263646580057,0.21964248234229938,0.047669518041371345,1255.9269487079832,17414.01878415953
2.0275344180225283,897.3372124015872,897.2924537497155,0.056662124309762196,0.0,0.1784314571488739,0.21933644976520325,0.047668031563742976,1255.7125954967753,17450.173091461143
2.052565707133917,897.5005767890659,897.475765881967,0.057654255601337676,0.0,0.17873797935160904,0.21902898175412397,0.04766653603879715,1255.4972360713832,17486.2180942914
2.0775969962453065,897.6614797041683,897.6552990701609,0.05865101437692926,0.0,0.1790459304738578,0.21872007914324965,0.047665031532677156,1255.280871071006,17522.15436126665
2.1026282853566958,897.8201235876162,897.8313516043844,0.059652398646234804,0.0,0.17935530996502141,0.2184097425208526,0.04766351810494753,1255.0635009587727,17557.98246818255
2.127659574468085,897.9766963790447,898.0042002671725,0.060658407161763406,0.0,0.17966611749965208,0.21809797224615718,0.04766199580901126,1254.8451260338054,17593.702996953736
2.1526908635794744,898.1313725696234,898.1741018886612,0.06166903936775014,0.0,0.17997835296195147,0.21778476846508882,0.047660464692501216,1254.6257464424784,17629.31653464194
2.1777221526908637,898.284314179949,898.3412947887606,0.06268429535245415,0.0,0.18029201643129697,0.21747013112497932,0.04765892479764664,1254.4053621889377,17664.82367256561
2.202753441802253,898.4356716689678,898.5060001144674,0.06370417580360901,0.0,0.1806071081687251,0.21715405998830084,0.047657376161616624,1254.183973144918,17700.225005484826
2.227784730913642,898.5855847793072,898.6684230797769,0.06472868196681095,0.0,0.18092362860430755,0.2168365546454933,0.04765581881684153,1253.9615790589228,17735.52113085579
2.252816020025031,898.7341833240865,898.8287541150329,0.06575781560664568,0.0,0.18124157832535748,0.21651761452694807,0.04765425279131393,1253.738179564791,17770.712648149605
2.2778473091364204,898.8815879200814,898.9871699320615,0.06679157897036449,0.0,0.1815609580654106,0.21619723891420517,0.04765267810887017,1253.5137741897101,17805.8001582305
2.3028785982478097,899.0279106719063,899.1438345109,0.06782997475393357,0.0,0.18188176869392564,0.21587542695041947,0.04765109478945372,1253.2883623616997,17840.784262788966
2.327909887359199,899.1732558117485,899.2989000134144,0.06887300607029041,0.0,0.18220401120665505,0.2155521776501458,0.04764950284936166,1253.0619434166113,17875.665563825925
2.3529411764705883,899.3177202991172,899.4525076286286,0.06992067641965109,0.0,0.1825276867166372,0.21522748990849233,0.04764790230147512,1252.8345166046765,17910.4446631842
2.3779724655819776,899.4613943850762,899.6047883540962,0.07097298966172075,0.0,0.18285279644576638,0.2149013625096871,0.04764629315547495,1252.6060810966344,17945.122162123855
2.4030037546933665,899.6043621455196,899.7558637171736,0.07202994998966687,0.0,0.18317934171689731,0.21457379413510133,0.047644675418043514,1252.3766359894703,17979.698660938666
2.4280350438047558,899.7467019882453,899.9058464395667,0.07309156190572175,0.0,0.1835073239464434,0.21424478337077038,0.047643049093053634,1252.146180311795,18014.174758610974
2.453066332916145,899.8884871388994,900.0548410480147,0.07415783019828433,0.0,0.18383674463743002,0.21391432871445257,0.04764141418174565,1251.9147130288932,18048.55105250276
2.4780976220275344,900.0297861113436,900.2029444334323,0.07522875992039708,0.0,0.18416760537296445,0.21358242858226442,0.047639770682893524,1251.68223304747,18082.82813808102
2.5031289111389237,900.1706631686535,900.3502463602485,0.07630435636947355,0.0,0.18449990781008466,0.21324908131493028,0.047638118592960896,1251.4487392201195,18117.00660867604
2.528160200250313,900.3111787818596,900.4968299270289,0.07738462506815362,0.0,0.18483365367395066,0.21291428518368435,0.047636457906248174,1251.2142303495452,18151.087055271597
2.5531914893617023,900.4513900947311,900.6427719787272,0.07846957174616107,0.0,0.18516884475233858,0.2125780383958642,0.04763478861503145,1250.9787051925605,18185.070066326334
2.5782227784730916,900.591351404458,900.7881434700827,0.07955920232303276,0.0,0.1855054828903999,0.21224033910023515,0.047633110709694344,1250.7421624638944,18218.95622762665
2.6032540675844804,900.7311146700872,900.9330097787085,0.08065352289158206,0.0,0.1858435699856421,0.21190118539208905,0.047631424178853986,1250.504600839837,18252.74612217151
2.6282853566958697,900.8707300631493,901.0774309653247,0.08175253970194658,0.0,0.18618310798308724,0.2115605753181625,0.04762972900948213,1250.2660189617561,18286.44033009077
2.653316645807259,901.0102465781569,901.2214619773292,0.0828562591460552,0.0,0.1865240988705564,0.2112185068814268,0.04762802518702282,1250.02641543952,18320.039428599317
2.6783479349186483,901.1497127247826,901.3651527905477,0.0839646877423284,0.0,0.18686654467402547,0.21087497804580535,0.04762631269550811,1249.7857888548708,18353.543991990573
2.7033792240300376,901.289177328648,901.5085484825448,0.08507783212040058,0.0,0.1872104474529866,0.21052998674088513,0.04762459151767359,1249.544137764788,18386.954591674134
2.728410513141427,901.428690474021,901.651689229534,0.08619569900561996,0.0,0.18755580929574237,0.21018353086669694,0.047622861635075495,1249.301460704909,18420.271796264104
2.753441802252816,901.5683046294961,901.7946102178894,0.0873182952030464,0.0,0.18790263231454693,0.20983560829865047,0.04762112302821196,1249.0577561930531,18453.496171726696
2.778473091364205,901.708076007092,901.9373414610883,0.08844562758062637,0.0,0.18825091864049748,0.20948621689272418,0.04761937567665078,1248.8130227329304,18486.62828159814
2.8035043804755944,901.8480662162372,902.0799075144008,0.0895777030511848,0.0,0.188600670418066,0.20913535449101991,0.04761761955916668,1248.5672588181126,18519.66868728695
2.8285356695869837,901.9883442867017,902.222327084212,0.09071452855284325,0.0,0.18895188979915384,0.20878301892780343,0.0476158546538913,1248.3204629363474,18552.61794847832
2.853566958698373,902.1289891482605,902.3646125387454,0.09185611102746656,0.0,0.18930457893654723,0.20842920803615392,0.04761408093847906,1248.0726335743127,18585.47662366269
2.8785982478097623,902.2700926686704,902.5067693456143,0.09300245739678106,0.0,0.18965873997666585,0.2080739196553317,0.04761229839029169,1247.8237692228795,18618.245270815554
2.9036295369211516,902.4117633634704,902.6487954941806,0.09415357453593896,0.0,0.19001437505153648,0.20771715163893492,0.04761050698660336,1247.5738683829443,18650.92444826127
2.928660826032541,902.5541308975015,902.790681014497,0.09530946924458732,0.0,0.1903714862700081,0.20735890186382624,0.047608706704825574,1247.3229295718047,18683.51471575967
2.9536921151439297,902.6973514934167,902.9324077889645,0.09647014821603608,0.0,0.19073007570838957,0.20699916823964698,0.0476068975227468,1247.0709513299614,18716.016635860284
2.978723404255319,902.8416143380645,903.0739499790566,0.09763561800603963,0.0,0.19109014540096803,0.20663794871845143,0.04760507941877412,1246.8179322279998,18748.430775574096
3.0037546933667083,902.9871490210045,903.2152755674151,0.09880588500419517,0.0,0.19145169733131925,0.20627524130353472,0.04760325237215169,1246.563870872895,18780.75770841544
3.0287859824780976,903.1342339347314,903.3563497481149,0.09998095541322827,0.0,0.19181473342600713,0.2059110440558292,0.047601416363111805,1246.3087659125742,18812.998016864738
3.053817271589487,903.283205395256,903.4971411685952,0.10116083524467788,0.0,0.1921792555532538,0.20554535509524186,0.0475995713728878,1246.052616036857,18845.15229529318
3.078848560700876,903.4344669889226,903.6376322815728,0.10234553034379491,0.0,0.1925452655304658,0.20517817259298154,0.04759771738348151,1245.7954199719434,18877.221153369184
3.1038798498122655,903.5884983131815,903.7778351890604,0.10353504646160891,0.0,0.19291276514606107,0.204809494749335,0.04759585437703558,1245.5371764644851,18909.20521992874
3.1289111389236544,903.7458618789889,903.91781416121,0.10472938939731095,0.0,0.1932817562026157,0.20443931974975,0.04759398233461675,1245.2778842501305,18941.105147234135
3.1539424280350437,903.907206550019,904.0577152376825,0.10592856523769727,0.0,0.19365224058944103,0.2040676456909745,0.04759210123418589,1245.0175420006299,18972.92161546632
3.178973717146433,904.0732656375042,904.1978017439991,0.1071325807197935,0.0,0.19402422039251147,0.20369447046919092,0.047590211047533866,1244.7561482437425,19004.655337199987
3.2040050062578223,904.2448478285545,904.3384921669995,0.10834144373470668,0.0,0.1943976980472129,0.20331979162457597,0.04758831173602727,1244.4937012519472,19036.307061510277
3.2290362953692116,904.4228196797035,904.4803940682658,0.10955516397261274,0.0,0.19477267653388133,0.20294360614231316,0.04758640324515543,1244.230198899976,19067.877577278057
3.254067584480601,904.60807953865,904.624325582685,0.11077375368057246,0.0,0.19514915960753915,0.2025659102187889,0.04758448549810006,1243.9656384974164,19099.367715228604
3.27909887359199,904.8015243401827,904.771315904692,0.11199722847113848,0.0,0.1955271520430028,0.2021866990121131,0.04758255838882409,1243.7000166100613,19130.7783482826
3.304130162703379,905.0040123761912,904.9225790061538,0.11322560808987092,0.0,0.1959066598674791,0.20180596640531412,0.0475806217754185,1243.4333288902928,19162.11038993436
3.3291614518147683,905.2163263229592,905.0794604457797,0.11445891703534718,0.0,0.19628769054835157,0.2014237048150474,0.04757867547456106,1243.1655699399673,19193.36479058498
3.3541927409261576,905.4391410542822,905.2433637738421,0.11569718493409485,0.0,0.19667025310653333,0.20103990507593117,0.04757671925786259,1242.8967332273353,19224.542532007596
3.379224030037547,905.6729999336769,905.4156681363276,0.11694044660484335,0.0,0.19705435813544994,0.20065455642076532,0.047574752850605376,1242.6268110724568,19255.64462034841
3.404255319148936,905.9183016373639,905.5976502593646,0.1181887417921783,0.0,0.19744001771956615,0.2002676465627956,0.04757277593299342,1242.3557947054808,19286.672078218802
3.4292866082603255,906.1752976637993,905.7904217498169,0.11944211459479732,0.0,0.1978272452600424,0.19987916187226892,0.04757078814365005,1242.0836743921993,19317.62593648245
3.454317897371715,906.4440990913666,905.9948879359049,0.12070061264550326,0.0,0.1982160552247859,0.1994890876296728,0.04756878908481935,1241.8104396142244,19348.507226291546
3.4793491864831037,906.7246901876013,906.2117293202076,0.12196428611263412,0.0,0.19860646284395103,0.1990974083341787,0.04756677832860186,1241.5360792883382,19379.31697180766
3.504380475594493,907.0169461979856,906.4414027377055,0.12323318658665502,0.0,0.19899848377011098,0.19870410804765645,0.04756475542357207,1241.260582010892,19410.056183893594
3.5294117647058822,907.3206528892556,906.6841571750712,0.12450736589639454,0.0,0.1993921337164483,0.19830917076057145,0.047562719901241085,1240.9839363173296,19440.725854917262
3.5544430538172715,907.6355259544008,906.9400587572845,0.12578687487315537,0.0,0.19978742807830294,0.19791258077418666,0.04756067128198559,1240.706130952692,19471.326954688855
3.579474342928661,907.9612289944995,907.2090200719944,0.1270717620524599,0.0,0.200184381534715,0.1975143231022924,0.04755860908022105,1240.4271551551901,19501.860427466545
3.60450563204005,908.297389339916,907.4908301722895,0.12836207227489654,0.0,0.2005830076179292,0.19711438390443756,0.04755653280872696,1240.146998961133,19532.327189913845
3.6295369211514394,908.6436113977348,907.7851828295104,0.12965784511958067,0.0,0.2009833182302355,0.19671275097129004,0.047554441982127,1239.8656535455864,19562.728129866482
3.6545682102628283,908.999487502494,908.0917016540858,0.1309591130747139,0.0,0.201385323078561,0.19630941429175106,0.04755233611958567,1239.583111619452,19593.06410576137
3.6795994993742176,909.3646064220204,908.4099614803631,0.13226589931699967,0.0,0.2017890289871012,0.19590436674159362,0.04755021474681653,1239.2993679107474,19623.33594658676
3.704630788485607,909.7385597563018,908.7395059280127,0.13357821493221472,0.0,0.20219443903604323,0.19549760494564197,0.04754807739750869,1239.014419766415,19653.544452226433
3.729662077596996,910.1209464920053,909.0798613563239,0.13489605535927254,0.0,0.20260155145893077,0.19508913038100847,0.04754592361427873,1238.7282679217765,19683.69039408663
3.7546933667083855,910.5113759605832,909.4305475774249,0.13621939577540385,0.0,0.20301035821113103,0.19467895080899184,0.047543752949247925,1238.440917498762,19713.774515910314
3.779724655819775,910.9094694094988,909.7910857412259,0.13754818505578822,0.0,0.2034208430957007,0.19426708214939598,0.04754156496433429,1238.1523793122385,19743.797534697285
3.804755944931164,911.3148603440801,910.1610037878293,0.13888233783165835,0.0,0.20383297929901498,0.19385355094495493,0.04753935923133821,1237.8626715874102,19773.760141659866
3.829787234042553,911.7271937377616,910.5398398093954,0.14022172403083163,0.0,0.2042467261450518,0.19343839760701584,0.047537135331890815,1237.571822221549,19803.663003152084
3.8548185231539422,912.1461241438657,910.9271435902907,0.14156615510854575,0.0,0.20466202482257503,0.1930216806882753,0.047534892857326115,1237.279871761365,19833.50676151476
3.8798498122653315,912.57131267388,911.3224765121159,0.14291536596142837,0.0,0.20507879277272273,0.1926034824950969,0.04753263140853274,1236.9868773138512,19863.292035779934
3.904881101376721,913.0024227362,911.7254099248008,0.14426899126631273,0.0,0.2054969163465755,0.19218391642986976,0.04753035059583844,1236.6929176627127,19893.01942217553
3.92991239048811,913.4391143574529,912.1355220002162,0.14562653471375983,0.0,0.20591624125791755,0.19176313653822916,0.04752805003898103,1236.3980999212936,19922.68949436476
3.9549436795994994,913.8810368408259,912.5523930048195,0.14698732935269,0.0,0.2063365602777459,0.19134134981461953,0.04752572936722242,1236.102568107718,19952.302803344985
3.9799749687108887,914.3278194634935,912.9755988597275,0.14835048710877632,0.0,0.20675759756936823,0.1909188318673992,0.04752338821966901,1235.806514061207,19981.859876917963
4.005006257822278,914.7790599000001,913.4047028135482,0.14971483563600643,0.0,0.20717898909294444,0.19049594651467672,0.047521026245869624,1235.5101910976264,20011.361218628932
4.030037546933667,915.2343101183372,913.8392450588835,0.15107884126368526,0.0,0.20760025869539378,0.19007316969500934,0.04751864310677248,1235.21393067195,20040.807306058952
4.055068836045057,915.6930596906583,914.2787302160012,0.15244051830445057,0.0,0.20802078996806117,0.18965111761062553,0.04751623847613045,1234.9181619902681,20070.198588348085
4.080100125156446,916.154716875441,914.7226128421955,0.15379732792901996,0.0,0.20843979486687703,0.18923057810849628,0.04751381204244734,1234.6234338781778,20099.535482835898
4.105131414267834,916.618588559521,915.1702815699949,0.15514607477739914,0.0,0.2088562816301088,0.18881254276420945,0.047511363511548194,1234.3304371389877,20128.818370743065
4.130162703379224,917.0838612656762,915.6210431871805,0.15648281680639842,0.0,0.20926902680339962,0.18839823485898435,0.04750889260982562,1234.0400240500721,20158.047591901595
4.155193992490613,917.5495868849082,916.0741089365075,0.1578028130476805,0.0,0.20967655902870136,0.18798912559321218,0.04750639908814905,1233.7532196618167,20187.223438689354
4.180225281602002,918.0146782742523,916.5285863686432,0.15910054265525475,0.0,0.21007716495490977,0.1875869281786371,0.04750388272631727,1233.471217681231,20216.346149546007
4.2052565707133915,918.4779206736893,916.9834808184248,0.16036983197038915,0.0,0.21046892866735564,0.18719355841185548,0.0475013433377854,1233.195352998028,20245.415902726956
4.230287859824781,918.9380040026795,917.4377103428365,0.16160411742507347,0.0,0.21084981326955926,0.1868110530954498,0.04749878077422958,1232.9270448368823,20274.432811227613
4.25531914893617,919.3935775812677,917.8901361188114,0.1627968454455282,0.0,0.21121778497801683,0.18644144594562265,0.04749619492937399,1232.6677102843978,20303.396919972667
4.280350438047559,919.8433227833012,918.3396067523594,0.1639419682268293,0.0,0.21157096696764505,0.18608661374831856,0.047493585741464776,1232.4186570841593,20332.308206279435
4.305381727158949,920.2860324610637,918.7850106621676,0.16503445087239343,0.0,0.21190779674488644,0.18574811898651225,0.047490953193891856,1232.1809739732323,20361.166584190018
4.330413016270338,920.7206819638767,919.2253275822962,0.16607068402307645,0.0,0.21222715419409188,0.18542708179290773,0.047488297313735536,1231.9554414544484,20389.97191257907
4.355444305381727,921.1464778855352,919.6596700545866,0.16704871363865315,0.0,0.2125284328846273,0.1851241086406869,0.047485618168374565,1231.742482106598,20418.724006195607
4.380475594493117,921.5628771757426,920.0873088351963,0.16796825177824667,0.0,0.21281154341911937,0.184839288992182,0.047482915860613505,1231.5421582505928,20447.4226482657
4.405506883604506,921.9695777514133,920.5076808738468,0.1688304939005963,0.0,0.2130768567415439,0.18457225198716845,0.0474801905229605,1231.3542114533188,20476.067603152962
4.430538172715895,922.3664882840019,920.9203826869677,0.169637811063738,0.0,0.2133251086237046,0.18432226195262646,0.04747744231168373,1231.178129083113,20504.65862783289
4.455569461827284,922.753687295963,921.3251540925863,0.17039339639094567,0.0,0.21355728995852027,0.18408832810586656,0.04747467140113895,1231.0132207548547,20533.195481417373
4.480600750938673,923.1313804995376,921.7218573408928,0.17110093005417829,0.0,0.21377454279830235,0.18386930851302824,0.04747187797867432,1230.8586907711508,20561.677932461575
4.505632040050062,923.4998622838536,922.1104554882803,0.17176430073998086,0.0,0.2139780739194096,0.18366399652165305,0.04746906224024681,1230.7136983501389,20590.105764159078
4.5306633291614515,923.859484139689,922.4909923513239,0.17238739704329303,0.0,0.21416909008598095,0.18347118549463642,0.04746622438676242,1230.5774027324844,20618.47877774096
4.555694618272841,924.2106305275195,922.8635751139743,0.1729739656288556,0.0,0.21434875403240136,0.18328971282586712,0.047463364621081756,1230.4489938509148,20646.796794465805
4.58072590738423,924.5537014115456,923.2283598312023,0.1735275247167921,0.0,0.21451815761369936,0.18311848678830092,0.04746048314560268,1230.3277110367683,20675.059656570444
4.605757196495619,924.8891001767154,923.585539629077,0.17405131918758113,0.0,0.21467830787124645,0.18295650046703718,0.0474575801603267,1230.2128527270331,20703.26722749214
4.630788485607009,925.2172256075514,923.9353352215053,0.1745483046917149,0.0,0.21483012209932023,0.18280283669178438,0.047454655861323074,1230.103779899634,20731.41939160278
4.655819774718398,925.5384667885045,924.2779873326133,0.1750211505936443,0.0,0.21497442875654138,0.18265666712465656,0.04745171043951754,1229.999915436167,20759.516053631247
4.680851063829787,925.8532000319007,924.6137506515623,0.1754722542142021,0.0,0.21511197188371037,0.18251724784173712,0.04744874407974533,1229.9007410415982,20787.557137897675
4.705882352941177,926.1617871737868,924.9428890076941,0.17590376112376394,0.0,0.21524341739957337,0.18238391303684998,0.04744575696001944,1229.8057928556684,20815.542587443717
4.730913642052566,926.4645747705308,925.2656715157925,0.1763175880181924,0.0,0.2153693601983284,0.18225606792370183,0.04744274925097511,1229.7146565058956,20843.472363114564
4.755944931163955,926.7618938750308,925.5823694949554,0.17671544600102362,0.0,0.21549033137342702,0.18213318151182026,0.047439721115459035,1229.6269620728071,20871.346442628572
4.7809762202753445,927.0540601766744,925.8932540078738,0.17709886298705493,0.0,0.21560680516893227,0.18201477965501098,0.04743667270823764,1229.5423792452298,20899.164819657148
4.806007509386733,927.3413743625199,926.1985939009653,0.17746920453407022,0.0,0.2157192054432749,0.18190043858747942,0.04743360417580372,1229.4606128155292,20926.9275029285
4.831038798498122,927.6241226070691,926.498654251526,0.17782769278786814,0.0,0.21582791154768094,0.18178977904533172,0.04743051565626434,1229.381398582878,20954.634515363166
4.8560700876095115,927.9025790089478,926.7936950130915,0.17817543696573912,0.0,0.2159332635707354,0.18168246102204041,0.047427411494227925,1229.3044967615322,20982.285893258704
4.881101376720901,928.1770182333253,927.0839709427772,0.17851352612565932,0.0,0.2160355663567421,0.18157817975182663,0.047424325016305814,1229.2296719219319,21009.88168591263
4.90613266583229,928.4476921181656,927.3697337532099,0.17884286395512256,0.0,0.21613509364903882,0.18147666156667971,0.047421263118119325,1229.1567287162572,21037.421955022415
4.931163954943679,928.7148369091518,927.6512280435276,0.17916424407808812,0.0,0.21623209256630135,0.18137765941803144,0.047418225151661136,1229.085495592297,21064.90677352822
4.956195244055069,928.9786770583972,927.92869042167,0.17947838473735017,0.0,0.2163267867787653,0.18128094970048564,0.04741521051161189,1229.0158172936938,21092.336224893363
4.981226533166458,929.2394258048197,928.2023492914536,0.17978593757469172,0.0,0.21641937923442173,0.1811863295257265,0.04741221863391407,1228.9475529614115,21119.710402451445
5.006257822277847,929.4972857325781,928.4724247407228,0.180087495299858,0.0,0.21651005454045005,0.1810936143412011,0.04740924899434719,1228.8805744754982,21147.029408788436
5.031289111389237,929.752449306589,928.7391285124129,0.18038359838898504,0.0,0.2165989810435083,0.18100263584995283,0.04740630110711365,1228.8147650067258,21174.293355158217
5.056320400500626,930.0050993850349,929.0026640433304,0.1806747409387554,0.0,0.21668631264804766,0.18091324019243668,0.047403374523442725,1228.750017750798,21201.502360929902
5.081351689612015,930.2554097091994,929.263226557874,0.18096137578734567,0.0,0.21677219040710266,0.18082528635586398,0.047400468830219304,1228.6862348211164,21228.656553065546
5.1063829787234045,930.5035453711992,929.5210032059091,0.18124391899936496,0.0,0.2168567439157063,0.1807386447809234,0.04739758364864224,1228.6233262790738,21255.756065626618
5.131414267834794,930.7496632603413,929.7761732357357,0.18152275379939972,0.0,0.2169400925331794,0.18065319613963057,0.04739471863291655,1228.5612092835865,21282.801039307982
5.156445556946183,930.993912488883,930.028908194514,0.18179823402738463,0.0,0.2170223464570056,0.180568830261591,0.04739187346898275,1228.4998073440224,21309.79162099785
5.1814768460575715,931.2364347979761,930.2793721497184,0.18207068717903854,0.0,0.2171036076679115,0.18048544518905799,0.04738904787328566,1228.4390496628596,21336.727963362544
5.206508135168961,931.4773649445683,930.5277219262134,0.18234041708590037,0.0,0.21718397076306808,0.18040294634386655,0.04738624159158454,1228.3788705562722,21363.610224454675
5.23153942428035,931.7168310700155,930.774107354418,0.1826077062819422,0.0,0.21726352369198873,0.1803212457916696,0.047383454397805766,1228.3192089424888,21390.438567343677
5.256570713391739,931.9549550511284,931.0186715257641,0.18287281809727302,0.0,0.2173423484076917,0.18024026159090642,0.047380686092939064,1228.2600078891664,21417.213159767398
5.281602002503129,932.1918528343533,931.2615510522822,0.18313599851379067,0.0,0.21742052144394217,0.18015991721568797,0.047377936503977376,1228.2012142122323,21443.934173803827
5.306633291614518,932.4276347537514,931.5028763276879,0.18339747781283844,0.0,0.2174981144278993,0.1800801410432743,0.047375205482900466,1228.1427781197056,21470.601785561754
5.331664580725907,932.6624058334478,931.7427717878085,0.18365747204098617,0.0,0.21757519453627258,0.1800008658980383,0.0473724929057023,1228.0846528948364,21497.216174889476
5.356695869837297,932.8962660751478,931.9813561685567,0.18391618431615936,0.0,0.21765182490188376,0.1799220286450203,0.04736979867146123,1228.0267946137758,21523.77752510049
5.381727158948686,933.1293107313561,932.2187427600234,0.18417380599376593,0.0,0.21772806497673122,0.17984356982697577,0.04736712270145272,1227.9691618935053,21550.286022715412
5.406758448060075,933.3616305648766,932.4550396555187,0.1844305177095376,0.0,0.2178039708567456,0.17976543333972791,0.04736446493830346,1227.9117156664288,21576.741857219065
5.4317897371714645,933.593312095165,932.6903499946415,0.18468649031373421,0.0,0.2178795955727821,0.17968756614127868,0.04736182534518605,1227.8544189784486,21603.145220832113
5.456821026282854,933.8244378320946,932.9247721996644,0.18494188570942693,0.0,0.2179549893517967,0.17960991799073234,0.04735920390505304,1227.7972368077828,21629.49630829624
5.481852315394243,934.0550864976813,933.158400204694,0.18519685760596757,0.0,0.21803019985165403,0.17953244121358258,0.047356600619909255,1227.740135902118,21655.795316672302
5.506883604505632,934.2853332362884,933.391323677208,0.18545155219728224,0.0,0.2181052723725589,0.179455090490372,0.04735401551012108,1227.6830846320129,21682.042445150695
5.531914893617021,934.5152498138257,933.6236282316988,0.18570610877343902,0.0,0.21818025004773503,0.17937782266610014,0.047351448613761435,1227.6260528587288,21708.237894873095
5.55694618272841,934.7449048064387,933.8553956352587,0.18596066027290212,0.0,0.2182551740156525,0.1793005965780787,0.04734889998598925,1227.5690118148818,21734.381868765227
5.581977471839799,934.9743637791688,934.0867040050192,0.1862153337819413,0.0,0.21833008357581274,0.17922337290022544,0.04734636969846185,1227.511933996519,21760.474571379727
5.607008760951189,935.2036894550566,934.3176279974485,0.18647025098696018,0.0,0.21840501632988124,0.17914611400200575,0.04734385783877922,1227.454793065372,21786.51620874882
5.632040050062578,935.4329418751333,934.5482389895452,0.18672552858469632,0.0,0.2184800083097065,0.17906878382048536,0.04734136450995864,1227.3975637602177,21812.50698824593
5.657071339173967,935.6621785497432,934.7786052520395,0.18698127865477948,0.0,0.21855509409361903,0.17899134774409825,0.0473388898299384,1227.3402218163726,21838.447118456053
5.682102628285357,935.8914546016147,935.0087921147368,0.18723760899854067,0.0,0.21863030691221963,0.1789137725069223,0.047336433931109353,1227.282743892487,21864.3368090541
5.707133917396746,936.1208229010955,935.2388621241834,0.18749462344758192,0.0,0.21870567874474814,0.17883602609237093,0.047333996959873,1227.2251075038691,21890.176270690896
5.732165206508135,936.3503341939282,935.4688751938406,0.1877524221450719,0.0,0.21878124040695412,0.17875807764537938,0.04733157907622486,1227.167290961711,21915.965714886363
5.7571964956195245,936.5800372219571,935.6988887469951,0.18801110180262948,0.0,0.2188570216313591,0.17867989739219625,0.04732918045336193,1227.109273317583,21941.70535392945
5.782227784730914,936.8099788371386,935.9289578526448,0.18827075593521628,0.0,0.2189330511406631,0.17860145656702792,0.04732680127731309,1227.051034312687,21967.395400784382
5.807259073842303,937.0402041091703,936.1591353545848,0.1885314750760297,0.0,0.21900935671491564,0.17852272734491542,0.04732444174659116,1226.992554331431,21993.036069002952
5.832290362953692,937.2707564271116,936.3894719939614,0.18879334697359007,0.0,0.2190859652531319,0.17844368278016315,0.047322102071865706,1226.9338143588452,22018.62757264239
5.857321652065082,937.5016775952886,936.6200165255389,0.18905645677256608,0.0,0.21916290282983616,0.17836429674983778,0.0473197824756555,1226.874795941522,22044.170126188517
5.88235294117647,937.7330079238028,936.8508158279393,0.1893208871799548,0.0,0.21924019474703446,0.17828454390183548,0.04731748319203936,1226.8154811517136,22069.663944483906
5.907384230287859,937.964786313927,937.0819150081086,0.1895867186179619,0.0,0.2193178655820356,0.17820439960709808,0.04731520446638483,1226.7558525543054,22095.109242660703
5.932415519399249,938.1970503386895,937.3133575002743,0.18985402936496149,0.0,0.21939593923154993,0.1781238399155492,0.04731294655509334,1226.6958931763663,22120.506236077817
5.957446808510638,938.4298363188765,937.5451851596272,0.19012289568541346,0.0,0.2194744389523393,0.1780428415154771,0.047310709725361104,1226.6355864790826,22145.85514026227
5.982478097622027,938.6631793947608,937.7774383509964,0.19039339195008356,0.0,0.21955338739883684,0.17796138169594505,0.04730849425495495,1226.5749163317887,22171.156170854425
6.007509386733417,938.8971135937359,938.010156032733,0.19066559074708436,0.0,0.21963280665789875,0.17787943831206846,0.04730630043200221,1226.5138669879816,22196.409543556863
6.032540675844806,939.1316718941537,938.2433758360665,0.19093956298499584,0.0,0.21971271828107947,0.17779698975276587,0.04730412855479371,1226.452423063042,22221.615474086637
6.057571964956195,939.3668862855251,938.4771341401316,0.19121537798837068,0.0,0.21979314331452557,0.17771401491088962,0.04730197893159945,1226.3905695136061,22246.774178130843
6.0826032540675845,939.6027878253383,938.7114661429107,0.19149310358666063,0.0,0.21987410232681218,0.17763049315541266,0.04729985188049591,1226.3282916183568,22271.88587130513
6.107634543178974,939.8394066926741,938.9464059282946,0.19177280619699036,0.0,0.21995561543485342,0.17754640430553872,0.047297747729204455,1226.2655749601404,22296.950769115083
6.132665832290363,940.0767722387965,939.1819865294626,0.19205455090130827,0.0,0.22003770232805384,0.17746172860657095,0.047295666814940227,1226.2024054093024,22321.969086920286
6.157697121401752,940.3149130349275,939.4182399887933,0.1923384015185696,0.0,0.22012038229090328,0.17737644670733443,0.04729360948427079,1226.1387691080934,22346.94103990089
6.182728410513142,940.5538569173476,939.6551974144822,0.1926244206722564,0.0,0.22020367422411252,0.17729053963905758,0.04729157609298398,1226.0746524560836,22371.866843026524
6.207759699624531,940.7936310299996,939.8928890340592,0.19291266985374758,0.0,0.2202875966644475,0.17720398879555277,0.04728956700596448,1226.010042096473,22396.746711027456
6.232790988735919,941.034261864735,940.1313442449673,0.1932032094818208,0.0,0.22037216780335198,0.1771167759146074,0.047287582597078395,1225.9449249032364,22421.58085836781
6.257822277847309,941.2757752993634,940.3705916623849,0.19349609895875117,0.0,0.22045740550450282,0.17702888306044112,0.04728562324906551,1225.8792879690018,22446.36949922074
6.282853566958698,941.518196633629,940.6106591644366,0.1937913967232304,0.0,0.22054332732036833,0.17694029260715896,0.0472836893534387,1225.8131185936209,22471.112847445493
6.307884856070087,941.7615506232378,940.8515739349472,0.19408916030036544,0.0,0.22062995050785011,0.17685098722311945,0.0472817813103899,1225.7464042733625,22495.81111656614
6.332916145181477,942.0058615120789,941.0933625038907,0.19438944634914465,0.0,0.22071729204313012,0.17676094985609642,0.04727989952870244,1225.679132690659,22520.464519751993
6.357947434292866,942.2511530627303,941.3360507856576,0.19469231070745316,0.0,0.220805368635748,0.1766701637192098,0.04727804442566909,1225.611291704376,22545.073269799537
6.382978723404255,942.4974485853662,941.5796641152796,0.1949978084349314,0.0,0.22089419674200175,0.17657861227753194,0.04727621642701564,1225.5428693405556,22569.637579115806
6.4080100125156445,942.7447709651816,941.8242272827367,0.1953059938539191,0.0,0.22098379257774567,0.17648627923529542,0.04727441596682943,1225.4738537835628,22594.15765970312
6.433041301627034,942.9931426883984,942.0697645654504,0.19561692058849578,0.0,0.22107417213059088,0.17639314852369767,0.04727264348749268,1225.4042333676512,22618.63372314513
6.458072590738423,943.2425858669773,942.3162997590894,0.19593064160197335,0.0,0.22116535117161884,0.1762992042891916,0.04727089943962019,1225.3339965688567,22643.06598059404
6.483103879849812,943.4931222620836,942.5638562067737,0.19624720923276479,0.0,0.22125734526658414,0.17620443088228596,0.04726918428200107,1225.2631319972481,22667.454642758996
6.508135168961202,943.7447733064307,942.8124568267997,0.19656667522903967,0.0,0.22135016978673555,0.17610881284672705,0.047267498481544185,1225.1916283894304,22691.799919895537
6.533166458072591,943.9975601255403,943.0621241389586,0.19688909078205374,0.0,0.22144383991921923,0.17601233490909685,0.04726584251322715,1225.119474601343,22716.102021796072
6.55819774718398,944.251503557987,943.3128802895371,0.19721450655824474,0.0,0.22153837067709448,0.1759149819687983,0.047264216860048495,1225.046659601319,22740.36115778134
6.58322903629537,944.5066241747303,943.5647470750996,0.19754297273044555,0.0,0.22163377690907063,0.17581673908831844,0.04726262201298273,1224.9731724633345,22764.577536692712
6.608260325406758,944.7629422975468,943.8177459651057,0.19787453900796592,0.0,0.22173007330888808,0.17571759148384716,0.047261058470938186,1224.8990023605065,22788.75136688545
6.633291614518147,945.0204780166582,944.0718981234573,0.19820925466588843,0.0,0.22182727442445146,0.17561752451614263,0.04725952674071718,1224.8241385587526,22812.88285622268
6.658322903629537,945.2792512075815,944.3272244290272,0.19854716857346694,0.0,0.22192539466668015,0.1755165236816786,0.047258027336978564,1224.748570410653,22836.972212070224
6.683354192740926,945.5392815472756,944.5837454952473,0.19888832922182967,0.0,0.22202444831813958,0.1754145746040111,0.04725656078220221,1224.6722873494555,22861.019641292092
6.708385481852315,945.8005885296043,944.8414816888035,0.1992327847509071,0.0,0.22212444954142835,0.17531166302538762,0.047255127606655206,1224.595278883249,22885.025350246706
6.7334167709637045,946.0631914801758,945.1004531475004,0.19958058297568748,0.0,0.2222254123873536,0.17520777479856817,0.04725372834835991,1224.5175345892858,22908.989544783773
6.758448060075094,946.3271095705985,945.3606797973513,0.1999317714119022,0.0,0.2223273508029269,0.17510289587882533,0.04725236355306316,1224.4390441084213,22932.912430241788
6.783479349186483,946.5923618321771,945.6221813689309,0.2002863973010365,0.0,0.22243027863914736,0.1749970123161556,0.047251033774206905,1224.359797139702,22956.79421144611
6.808510638297872,946.8589671691007,945.8849774130521,0.2006445076348438,0.0,0.22253420965862866,0.17489011024764714,0.047249739572899754,1224.2797834350606,22980.635092707616
6.833541927409262,947.1269443711512,946.1490873158009,0.20100614917934617,0.0,0.22263915754306482,0.17478217589000797,0.04724848151788963,1224.1989927941195,23004.435277821896
6.858573216520651,947.3963121259344,946.4145303129604,0.20137136849816656,0.0,0.22274513590048534,0.17467319553230404,0.04724726018553684,1224.1174150591416,23028.19497006895
6.88360450563204,947.667089030711,946.6813255038844,0.20174021197556263,0.0,0.2228521582724171,0.1745631555287902,0.04724607615978804,1224.0350401100418,23051.91437221337
6.90863579474343,947.9392936038105,946.9494918648321,0.20211272583885626,0.0,0.22296023814085614,0.17445204229193087,0.04724493003215034,1223.9518578595319,23075.593686504995
6.933667083854819,948.212944295665,947.2190482618055,0.20248895618040183,0.0,0.22306938893509534,0.17433984228556387,0.04724382240166589,1223.8678582483603,23099.233114679973
6.958698372966207,948.4880594994935,947.4900134629219,0.20286894897914168,0.0,0.2231796240384223,0.17422654201819404,0.04724275387488642,1223.7830312406472,23122.832857962345
6.983729662077597,948.7646575616458,947.7624061503448,0.20325275012168648,0.0,0.22329095679466876,0.17411212803643447,0.04724172506584785,1223.697366819315,23146.39311706586
7.008760951188986,949.0427567916296,948.0362449318009,0.20364040542297518,0.0,0.22340340051462837,0.17399658691857894,0.047240736596044657,1223.610854981614,23169.91409219636
7.033792240300375,949.3223754718288,948.3115483517012,0.20403196064643606,0.0,0.22351696848231906,0.17387990526832942,0.047239789094404024,1223.5234857347539,23193.395983054394
7.0588235294117645,949.6035318669382,948.5883349018947,0.20442746152374247,0.0,0.22363167396111858,0.17376206970864974,0.047238883197259475,1223.435249091623,23216.83898883825
7.083854818523154,949.8862442331364,948.8666230320783,0.20482695377419838,0.0,0.22374753019978455,0.17364306687573425,0.04723801954832396,1223.3461350665852,23240.24330824733
7.108886107634543,950.1705308269874,949.1464311598704,0.2052304831236137,0.0,0.22386455043831616,0.17352288341313468,0.04723719879866224,1223.2561336713904,23263.609139485765
7.133917396745932,950.4564099140908,949.4277776805668,0.20563809532269747,0.0,0.22398274791366532,0.17340150596603632,0.04723642160666242,1223.1652349111841,23286.93668026646
7.158948685857322,950.7438997775192,949.7106809766135,0.20604983616520847,0.0,0.22410213586537292,0.17327892117560956,0.04723568863800653,1223.0734287805744,23310.226127815313
7.183979974968711,951.0330187260091,949.9951594267857,0.20646575150548588,0.0,0.22422272754101225,0.17315511567355293,0.047235000565640006,1222.9807052598287,23333.477678875803
7.2090112640801,951.3237851019453,950.2812314151025,0.20688588727564647,0.0,0.22434453620152925,0.1730300760767394,0.04723435806973993,1222.8870543111423,23356.6915297138
7.23404255319149,951.6162172891396,950.5689153394858,0.2073102895023285,0.0,0.22446757512644228,0.17290378898200265,0.04723376183768197,1222.7924658750069,23379.867876122637
7.259073842302879,951.9103337204052,950.8582296201738,0.20773900432297593,0.0,0.2245918576188994,0.17277624096106473,0.04723321256400581,1222.6969298666763,23403.006913428442
7.284105131414268,952.2061528849465,951.1491927079034,0.20817207800174028,0.0,0.22471739701061788,0.17264741855558186,0.04723271095037891,1222.600436172715,23426.1088364957
7.309136420525657,952.5036933355602,951.4418230918661,0.2086095569448904,0.0,0.22484420666667096,0.17251730827234196,0.04723225770555873,1222.502974647653,23449.17383973304
7.334167709637046,952.8029736956624,951.7361393074552,0.2090514877158399,0.0,0.2249722999901573,0.17238589657857906,0.047231853545352864,1222.4045351107209,23472.202117099234
7.359198998748435,953.1040126661453,952.0321599438039,0.20949791704972234,0.0,0.22510169042673073,0.17225316989742728,0.047231499192577416,1222.3051073426864,23495.193862109383
7.3842302878598245,953.4068290320647,952.3299036511287,0.20994889186752413,0.0,0.22523239146899326,0.17211911460351045,0.04723119537701311,1222.204681082781,23518.14926784136
7.409261576971214,953.7114416691726,952.6293891478831,0.21040445928980595,0.0,0.22536441666076243,0.17198371701865772,0.047230942835359266,1222.1032460257197,23541.068526942392
7.434292866082603,954.0178695502882,952.9306352277277,0.2108646666499574,0.0,0.22549777960119383,0.17184696340776237,0.047230742311185375,1222.0007918188194,23563.951831635797
7.459324155193992,954.3261317515285,953.2336607663289,0.2113295615070886,0.0,0.22563249394879348,0.17170883997475173,0.04723059455488021,1221.8973080591934,23586.79937372798
7.484355444305382,954.6362474583873,953.5384847279843,0.2117991916584439,0.0,0.22576857342528234,0.17156933285870302,0.04723050032359828,1221.7927842910537,23609.611344615518
7.509386733416771,954.9482359716709,953.8451261720852,0.21227360515138682,0.0,0.22590603181933003,0.17142842813009063,0.04723046038120367,1221.687210003099,23632.387935292434
7.53441802252816,955.2621167133118,954.1536042594282,0.2127528502950569,0.0,0.22604488299018816,0.17128611178713252,0.047230475498210814,1221.5805746259812,23655.12933635759
7.55944931163955,955.5779092320313,954.4639382583641,0.2132369756714901,0.0,0.2261851408711586,0.17114236975230138,0.047230546451722484,1221.4728675298793,23677.835738022295
7.584480600750939,955.8956332088799,954.7761475508039,0.21372603014636915,0.0,0.22632681947295008,0.1709971878689476,0.04723067402536451,1221.3640780221585,23700.50733011796
7.609511889862328,956.215308462669,955.0902516380892,0.21422006287947723,0.0,0.22646993288694306,0.17085055189801232,0.047230859009217294,1221.2541953450911,23723.144302103934
7.6345431789737175,956.5369549552561,955.4062701467138,0.21471912333457657,0.0,0.2266144952882796,0.17070244751491562,0.04723110219974394,1221.1432086737016,23745.746843075474
7.659574468085106,956.8605927967349,955.7242228339207,0.21522326128904076,0.0,0.22676052093887883,0.17055286030651876,0.04723140439971483,1221.0311071136637,23768.31514177181
7.684605757196495,957.1862422505003,956.0441295931665,0.21573252684302638,0.0,0.2269080241903115,0.17040177576822643,0.04723176641812862,1220.917879699298,23790.84938658429
7.7096370463078845,957.5139237382062,956.3660104594607,0.21624697042826999,0.0,0.22705701948656107,0.17024917930120204,0.04723218907012942,1220.803515391649,23813.34976556472
7.734668335419274,957.8436578446225,956.6898856145881,0.21676664281655847,0.0,0.22720752136668626,0.17009505620968118,0.047232673176919954,1220.6880030766326,23835.816466433716
7.759699624530663,958.1754653223786,957.0157753922098,0.21729159512776838,0.0,0.22735954446735207,0.16993939169841557,0.04723321956567087,1220.5713315632775,23858.249676589217
7.784730913642052,958.5093670966194,957.3437002828547,0.21782187883759785,0.0,0.22751310352526918,0.16978217087020905,0.04723382906942572,1220.4534895820302,23880.64958311505
7.809762202753442,958.8453842695621,957.6736809388048,0.21835754578495928,0.0,0.22766821337953003,0.16962337872355507,0.0472345025270016,1220.3344657831349,23903.01637278959
7.834793491864831,959.1835381249517,958.0057381788666,0.21889864817894747,0.0,0.22782488897381728,0.16946300015040233,0.04723524078288551,1220.2142487351045,23925.350232094534
7.85982478097622,959.5238501324443,958.3398929930528,0.21944523860559811,0.0,0.22798314535855002,0.16930101993398164,0.0472360446871259,1220.0928269232354,23947.65134722369
7.88485607008761,959.8663419518888,958.6761665471557,0.21999737003421102,0.0,0.228142997692898,0.16913742274676408,0.04723691509521964,1219.9701887482172,23969.919904091923
7.909887359198999,960.2110354375361,959.0145801872329,0.22055509582341504,0.0,0.22830446124671988,0.1689721931484947,0.047237852867994055,1219.8463225247963,23992.15608834408
7.934918648310388,960.5579526421636,959.355155444,0.2211184697269088,0.0,0.2284675514024041,0.16880531558432338,0.047238858871483984,1219.7212164805098,24014.36008536408
7.9599499374217775,960.9071158211281,959.6979140371348,0.22168754589890136,0.0,0.22863228365662044,0.16863677438302346,0.047239933976803684,1219.594858754487,24036.532080283956
7.984981226533167,961.25854506821,960.0428765022608,0.2222623626727128,0.0,0.22879866858345943,0.168466558793838,0.04724107906003772,1219.4672409051457,24058.67225797199
8.010012515644556,961.6122631346996,960.3900647692179,0.22284297744675813,0.0,0.22896672266707344,0.16829465215387657,0.047242295002164994,1219.338350366488,24080.780802953443
8.035043804755945,961.9682953537474,960.7395025448467,0.22342946260466875,0.0,0.22913646703488938,0.16812103315471416,0.047243582688641934,1219.2081713301643,24102.85789964442
8.060075093867335,962.3266648389005,961.0912123991882,0.224021873616227,0.0,0.22930791755257576,0.16794568574744922,0.04724494300942597,1219.076691643352,24124.90373226841
8.085106382978724,962.6873949221431,961.4452171029391,0.22462026640643026,0.0,0.2294810902174171,0.1677685937493116,0.04724637685884688,1218.943899052853,24146.918484843616
8.110137672090113,963.0505091581163,961.8015396324238,0.22522469735663267,0.0,0.22965600115875956,0.16758974084318465,0.04724788513544296,1218.8097812048204,24168.90234119225
8.135168961201503,963.4160313282092,962.1602031743745,0.22583522330562936,0.0,0.22983266663844248,0.16740911057714036,0.047249468741791194,1218.6743256444931,24190.85548494989
8.160200250312892,963.783985444537,962.5212311305349,0.22645190155067846,0.0,0.2300111030512152,0.16722668636398835,0.04725112858433153,1218.5375198159481,24212.778099574913
8.185231539424281,964.1543957538087,962.8846471221029,0.22707478984845875,0.0,0.23019132692513855,0.16704245148083988,0.04725286557318474,1218.3993510618614,24234.670368357976
8.210262828535669,964.5272867410993,963.2504749940249,0.22770394641595854,0.0,0.23037335492196934,0.16685638906868763,0.04725468062196424,1218.2598066232867,24256.532474431533
8.235294117647058,964.9026831335324,963.6187388191547,0.2283394299312933,0.0,0.23055720383752795,0.16666848213200228,0.04725657464758105,1218.1188736394477,24278.3646007794
8.260325406758447,965.2806099038833,963.9894629022886,0.22898129953444823,0.0,0.2307428906020473,0.1664787135383463,0.047258548570042365,1217.9765391475446,24300.166930246378
8.285356695869837,965.6610922741074,964.3626717840862,0.22962961482794259,0.0,0.23093043228050278,0.16628706601800672,0.04726060331224315,1217.832790082579,24321.93964554791
8.310387984981226,966.0441557188017,964.7383902448878,0.23028443587741257,0.0,0.23111984607292207,0.16609352216364656,0.04726273979975086,1217.6876132771952,24343.68292927975
8.335419274092615,966.4298259686063,965.1166433084381,0.23094582321210932,0.0,0.23131114931467403,0.16589806442997715,0.04726495896058294,1217.5409954615368,24365.39696392769
8.360450563204004,966.8181290135515,965.4974562455219,0.23161383782530873,0.0,0.23150435947673542,0.16570067513345105,0.0472672617249772,1217.3929232631278,24387.081931877336
8.385481852315394,967.2090911063533,965.880854577521,0.23228854117462974,0.0,0.23169949416593535,0.16550133645197732,0.04726964902515466,1217.2433832067645,24408.738015423845
8.410513141426783,967.6027387656663,966.2668640799008,0.2329699951822578,0.0,0.23189657112517525,0.1653000304246597,0.04727212179507492,1217.0923617144333,24430.36539678177
8.435544430538172,967.9990987792953,966.6555107856301,0.23365826223507,0.0,0.232095608233625,0.1650967389515585,0.0472746809701838,1216.939845105249,24451.96425809488
8.460575719649562,968.3981982073703,967.046820988542,0.2343534051846586,0.0,0.23229662350689242,0.16489144379347728,0.047277327487153215,1216.7858195954097,24473.534781446007
8.485607008760951,968.8000643854897,967.4408212466406,0.2350554873472496,0.0,0.23249963509716734,0.1646841265717758,0.04728006228361299,1216.6302712981776,24495.077148866956
8.51063829787234,969.2047249278337,967.8375383853595,0.23576457250351263,0.0,0.23270466129333686,0.16447476876820877,0.047282886297874686,1216.4731862238832,24516.59154234836
8.53566958698373,969.612207730253,968.2369995007759,0.23648072489825883,0.0,0.23291172052107337,0.16426335172479317,0.04728580046864714,1216.3145502799496,24538.07814384966
8.560700876095119,970.0225409733332,968.6392319627844,0.2372040092400234,0.0,0.2331208313428917,0.16404985664370364,0.04728880573474359,1216.1543492709427,24559.537135308994
8.585732165206508,970.4357531254396,969.0442634182338,0.2379344907005289,0.0,0.23333201245817678,0.1638342645871978,0.0472919030347805,1215.9925688986475,24580.96869865318
8.610763454317897,970.8518729457459,969.4521217940345,0.23867223491402662,0.0,0.23354528270317929,0.16361655647757195,0.047295093306867535,1215.829194762169,24602.3730158077
8.635794743429287,971.270929487243,969.8628353002339,0.23941730797651073,0.0,0.23376066105097884,0.16339671309714884,0.047298377488288953,1215.6642123580577,24623.75026870669
8.660826032540676,971.6929520997389,970.2764324330659,0.24016977644480222,0.0,0.23397816661141266,0.16317471508829787,0.04730175651517613,1215.4976070804678,24645.10063930293
8.685857321652065,972.1179704328433,970.6929419779785,0.24092970733549976,0.0,0.2341978186309706,0.16295054295348974,0.04730523132217105,1215.3293642213368,24666.424309577913
8.710888610763455,972.546014438944,971.1123930126384,0.2416971681237925,0.0,0.2344196364926535,0.16272417705538517,0.04730880284208073,1215.1594689705992,24687.721461551857
8.735919899874844,972.977114376175,971.5348149099202,0.2424722267421321,0.0,0.23464363971579472,0.16249559761696009,0.04731247200552248,1214.9879064164274,24708.992277293768
8.760951188986233,973.4113008113763,971.9602373408751,0.24325495157875893,0.0,0.2348698479558435,0.16226478472166816,0.047316239740559755,1214.8146615455034,24730.236938931535
8.785982478097623,973.8486046230493,972.388690277689,0.24404541147607967,0.0,0.2350982810041092,0.1620317183136409,0.04732010697232872,1214.6397192433228,24751.455628662
8.811013767209012,974.2890570043054,972.8202039966251,0.2448436757288905,0.0,0.23532895878746443,0.16179637819792822,0.047324074622655116,1214.4630642945303,24772.648528761078
8.836045056320401,974.7326894658131,973.2548090809571,0.24564981408244366,0.0,0.23556190136800664,0.16155874404077897,0.047328143609661665,1214.2846813832873,24793.81582159386
8.86107634543179,975.1795338387409,973.6925364238915,0.2464638967303515,0.0,0.2357971289426766,0.16131879536996385,0.04733231484736559,1214.1045550936763,24814.957689624756
8.88610763454318,975.6296222776972,974.1334172314818,0.24728599431232443,0.0,0.23603466184283228,0.16107651157514177,0.047336589245266444,1213.9226699101373,24836.074315427657
8.911138923654567,976.08298726367,974.5774830255345,0.248116177911738,0.0,0.23627452053377684,0.16083187190827067,0.04734096770792393,1213.7390102179427,24857.165881696066
8.936170212765957,976.5396616069646,975.024765646512,0.2489545190530242,0.0,0.23651672561423948,0.16058485548406423,0.04734545113452577,1213.5535603037067,24878.232571253327
8.961201501877346,976.9996784501392,975.4752972564253,0.2498010896988817,0.0,0.23676129781580701,0.16033544128049707,0.04735004041844541,1213.3663043559357,24899.27456706276
8.986232790988735,977.463071270942,975.9291103417255,0.2506559622473009,0.0,0.23700825800230554,0.16008360813935818,0.04735473644678966,1213.1772264656136,24920.29205223792
9.011264080100124,977.9298738852449,976.3862377161903,0.25151920952839657,0.0,0.23725762716912918,0.159829334766856,0.04735954009993599,1212.9863106268324,24941.28521005279
9.036295369211514,978.400120449977,976.8467125238064,0.2523909048010435,0.0,0.2375094264425155,0.15957259973427607,0.04736445225105955,1212.7935407374616,24962.254223952023
9.061326658322903,978.8738454660562,977.3105682416501,0.25327112174930816,0.0,0.23776367707876433,0.1593133814786929,0.04736947376564978,1212.598900599859,24983.19927756121
9.086357947434292,979.3510837813183,977.7778386827638,0.2541599344786684,0.0,0.23802040046339848,0.15905165830373974,0.04737460550101661,1212.40237392163,25004.120554697114
9.111389236545682,979.8318705934416,978.2485579990306,0.25505741751201555,0.0,0.2382796181102637,0.1587874083804367,0.04737984830578608,1212.2039443164297,25025.018239377998
9.136420525657071,980.316241452867,978.7227606840462,0.2559636457854275,0.0,0.2385413516605651,0.1585206097480817,0.0473852030193854,1212.0035953048157,25045.89251583388
9.16145181476846,980.8042322657094,979.2004815759873,0.25687869464370505,0.0,0.23880562288183707,0.15825124031520596,0.04739067047151746,1211.8013103151475,25066.743568516857
9.18648310387985,981.29587929666,979.6817558604781,0.2578026398356584,0.0,0.23907245366684293,0.1579792778605987,0.04739625148162462,1211.5970726845424,25087.571582111454
9.211514392991239,981.7912191718735,980.1666190734518,0.25873555750913174,0.0,0.23934186603240024,0.1577047000344042,0.04740194685834177,1211.390865659884,25108.376741544915
9.236545682102628,982.2902888818371,980.6551071040082,0.25967752420574897,0.0,0.23961388211812654,0.15742748435929715,0.0474077573989387,1211.1826723988918,25129.159231997604
9.261576971214017,982.7931257842148,981.1472561972653,0.26062861685536315,0.0,0.23988852418510018,0.15714760823174104,0.047413683888751716,1210.97247597125,25149.919238913328
9.286608260325407,983.2997676066591,981.6431029572045,0.26158891277018564,0.0,0.24016581461442874,0.15686504892333789,0.04741972710060444,1210.7602593598099,25170.656948009753
9.311639549436796,983.8102524495802,982.1426843495063,0.26255848963856815,0.0,0.24044577590571625,0.15657978358227673,0.04742588779421778,1210.546005461859,25191.372545288756
9.336670838548185,984.3246187888624,982.6460377043747,0.2635374255184042,0.0,0.2407284306754192,0.1562917892348921,0.04743216671560911,1210.3296970904769,25212.06621704687
9.361702127659575,984.8429054785053,983.1532007193468,0.26452579883010546,0.0,0.24101380165507702,0.1560010427873461,0.047438564596480715,1210.1113169759778,25232.738149885627
9.386733416770964,985.365151753177,983.6642114620844,0.2655236883491034,0.0,0.241301911689402,0.15570752102744934,0.04744508215359729,1209.8908477674568,25253.38853072201
9.411764705882353,985.8913972306459,984.179108373142,0.26653117319780795,0.0,0.24159278373420637,0.1554112006266426,0.0474517200881528,1209.6682720344486,25274.01754679886
9.436795994993743,986.4216819140622,984.6979302687052,0.2675483328369402,0.0,0.24188644085414243,0.15511205814216414,0.04745847908512648,1209.4435722687247,25294.625385695286
9.461827284105132,986.9560461940424,985.2207163432944,0.2685752470561341,0.0,0.24218290622022037,0.1548100700194367,0.04746535981262814,1209.2167308862415,25315.21223533704
9.486858573216521,987.494530850499,985.7475061724188,0.26961199596366964,0.0,0.24248220310706334,0.15450521259471553,0.047472362921232775,1208.9877302292803,25335.778284006934
9.51188986232791,988.0371770541458,986.2783397151755,0.2706586599751648,0.0,0.24278435488984473,0.1541974620980527,0.047479489043304623,1208.7565525688058,25356.32372035519
9.5369211514393,988.5840263675792,986.8132573167732,0.27171531980100344,0.0,0.24308938504083805,0.15388679465664595,0.0474867387923106,1208.5231801070988,25376.848733409766
9.561952440550689,989.1351207458182,987.3522997109642,0.2727820564322106,0.0,0.24339731712549015,0.15357318629866235,0.04749411276212336,1208.2875949807221,25397.35351258663
9.586983729662078,989.6905025361373,987.8955080223636,0.273858951124403,0.0,0.24370817479790197,0.1532566129576529,0.04750161152631412,1208.0497792639014,25417.838247699947
9.612015018773466,990.250214476989,988.4429237686234,0.27494608537933213,0.0,0.24402198179556536,0.15293705047770773,0.047509235637435226,1207.8097149724242,25438.303128972217
9.637046307884855,990.8142996957432,988.9945888624252,0.27604354092339145,0.0,0.2443387619331624,0.1526144746195477,0.04751698562629281,1207.5673840681934,25458.748347044242
9.662077596996244,991.3828017048882,989.5505456132508,0.2771513996822681,0.0,0.24465853909517005,0.15228886106780765,0.04752486200120989,1207.3227684646126,25479.17409298492
9.687108886107634,991.955764396232,990.1108367288681,0.27826974375066965,0.0,0.244981337226939,0.15196018543984333,0.04753286524727992,1207.075850033036,25499.58055830081
9.712140175219023,992.5332320324951,990.6755053164667,0.27939865535572395,0.0,0.24530718032380966,0.1516284232964991,0.04754099582561151,1206.8266106105789,25519.967934945456
9.737171464330412,993.1152492354918,991.2445948833529,0.2805382168122099,0.0,0.2456360924176928,0.15129355015540813,0.04754925417256464,1206.5750320097034,25540.336415328224
9.762202753441802,993.7018609698544,991.8181493370943,0.28168851046719995,0.0,0.2459680975603614,0.15095554150757945,0.047557640698979144,1206.3210960300785,25560.686192322686
9.787234042553191,994.2931125209037,992.3962129849799,0.28284961863091784,0.0,0.24630321980246095,0.1506143728382635,0.04756615578939616,1206.0647844734294,25581.01745927429
9.81226533166458,994.8890494648343,992.9788305326238,0.28402162348959603,0.0,0.24664148316692547,0.15027001965341033,0.04757479980127393,1205.8060791622709,25601.330410007195
9.83729662077597,995.489717628777,993.566047081504,0.2852046069947435,0.0,0.2469829116150619,0.14992245751345643,0.04758357306419912,1205.5449619637445,25621.625238829827
9.862327909887359,996.0951630375104,994.1579081251767,0.2863986507214124,0.0,0.24732752900299704,0.14957166207674652,0.04759247587909579,1205.2814148201512,25641.902140539027
9.887359198998748,996.705431842519,994.7544595438444,0.2876038356856094,0.0,0.24767535902542254,0.1492176091556553,0.04760150851743443,1205.0154197883235,25662.16131042207
9.912390488110137,997.3205702276754,995.3557475968829,0.2888202421077213,0.0,0.24802642514255413,0.14886027478949243,0.047610671220444496,1204.7469590906637,25682.402944256115
9.937421777221527,997.9406242838861,995.9618189128454,0.2900479491044338,0.0,0.24838075048485497,0.14849963533964114,0.04761996419833495,1204.476015181647,25702.627238304085
9.962453066332916,998.5656398424746,996.5727204763457,0.29128703428570674,0.0,0.2487383577282345,0.1481356676142193,0.047629387629528765,1204.2025708348497,25722.834389305935
9.987484355444305,999.1956622535716,997.1884996111003,0.29253757322540835,0.0,0.24909926892995665,0.14776834903202918,0.04763894165991942,1203.9266092572998,25743.024594463826
10.012515644555695,999.8307360910917,997.8092039582419,0.29379963876347437,0.0,0.2494635053121525,0.14739765783890132,0.04764862640216038,1203.6481142402545,25763.198051419145
10.037546933667084,1000.4709047595151,998.4348814488221,0.29507330008293914,0.0,0.24983108697531586,0.14702357339405375,0.04765844193500192,1203.3670703586574,25783.354958218802
10.062578222778473,1001.1162099690956,999.0655802691613,0.2963586214855891,0.0,0.250202032518065,0.14664607655018466,0.04766838830269526,1203.0834632357703,25803.49551326716
10.087609511889863,1001.7666910344983,999.7013488173721,0.2976556607634809,0.0,0.2505763585312076,0.14626515015926125,0.047678465514490766,1202.7972798951864,25823.619915258932
10.112640801001252,1002.4223839361166,1000.3422356488895,0.29896446702768137,0.0,0.2509540789229831,0.14588077974713154,0.047688673544266084,1202.5085092302231,25843.728363086575
10.137672090112641,1003.0833200620434,1000.988289408088,0.3002850778071298,0.0,0.2513352040172837,0.14549295441515875,0.047699012330333745,1202.2171426311386,25863.821055713695
10.16270337922403,1003.7495245199381,1001.6395587418198,0.3016175151651472,0.0,0.2517197393463167,0.14510166804741736,0.047709481775494375,1201.9231748247764,25883.89819200286
10.18773466833542,1004.4210138693627,1002.2960921885086,0.3029617804931783,0.0,0.25210768403181566,0.14470692092934404,0.047720081747426285,1201.6266050002512,25903.95997048233
10.212765957446809,1005.0977930733671,1002.9579380324498,0.30431784752370067,0.0,0.25249902861230505,0.14430872192034108,0.047730812079533225,1201.327438319722,25924.006589030905
10.237797246558198,1005.779851399266,1003.6251441055268,0.3056856529479888,0.0,0.2528937521253193,0.14390709137143676,0.04774167257241581,1201.0256879471076,25944.038244452673
10.262828535669588,1006.4671569080931,1004.2977575046557,0.3070650838193863,0.0,0.2532918181896861,0.14350206504289495,0.04775266299618813,1200.7213777719096,25964.055131904108
10.287859824780977,1007.1596490553997,1004.9758241671957,0.3084559606583539,0.0,0.25369316975073625,0.14309369935892263,0.04776378309393617,1200.4145460625075,25984.057444122966
10.312891113892366,1007.8572287791724,1005.6593881980639,0.30985801484383196,0.0,0.25409772204810044,0.14268207843982855,0.04777503258670895,1200.1052503550156,26004.045370391803
10.337922403003754,1008.5597434895358,1006.3485280850726,0.31127085853604114,0.0,0.25450535325694534,0.1422673234601972,0.04778641118203333,1199.7935739566663,26024.019095137588
10.362953692115143,1009.2669516254953,1007.043380849783,0.3126939453004255,0.0,0.2549158922099506,0.14184960492137363,0.04779791859725818,1199.4796344557003,26043.97879576319
10.387984981226532,1009.9785074839474,1007.7439430597756,0.314126517306422,0.0,0.25532910199467374,0.14142915905851364,0.047809554562409075,1199.163595142927,26063.924639553912
10.413016270337922,1010.6939445494344,1008.4501882738688,0.3155675370357417,0.0,0.2557446587358842,0.14100630906382405,0.04782131882595987,1198.8456797839497,26083.856780295788
10.438047559449311,1011.4126376869417,1009.1620674491785,0.3170156012823283,0.0,0.25616212484317846,0.14058149184021035,0.047833211178117424,1198.526191216909,26103.77535400744
10.4630788485607,1012.1337562236091,1009.8794904490238,0.3184688353211749,0.0,0.2565809160896242,0.1401552909248813,0.04784523148051976,1198.2055342393635,26123.68047337622
10.48811013767209,1012.8562085874995,1010.6022947772602,0.31992476842669826,0.0,0.25700026289009986,0.13972847521510937,0.04785737970246694,1197.884242529747,26143.572220635237
10.513141426783479,1013.5785812860007,1011.3301944768988,0.32138019753936453,0.0,0.25741916789597624,0.13930204138075042,0.04786965596293891,1197.5630081343254,26163.45063866781
10.538172715894868,1014.2990789885744,1012.0627007121807,0.3228310552914891,0.0,0.2578363649519594,0.1388772549195766,0.04788206057572029,1197.242710015829,26183.31572027219
10.563204005006257,1015.0154781269574,1012.7990069232545,0.3242723120028613,0.0,0.2582502886308167,0.13845568064225822,0.04789459409208463,1196.9244352629655,26203.167395815595
10.588235294117647,1015.7251127611264,1013.5378391529849,0.32569795636542115,0.0,0.2586590682629524,0.13803918867296994,0.04790725733208329,1196.6094832932656,26223.005519989736
10.613266583229036,1016.4249156796427,1014.2772897029495,0.3271011096239494,0.0,0.2590605635158169,0.13762991891305454,0.047920051392785046,1196.299341199898,26242.829859031648
10.638297872340425,1017.1115351078968,1015.0146787279881,0.32847432152754774,0.0,0.25945245654317234,0.13723018894788452,0.047932977622007614,1195.9956198036516,26262.640080456058
10.663329161451815,1017.7815333938054,1015.7465122790951,0.32981006139113034,0.0,0.2598324048497493,0.13684234124716077,0.04794603755141661,1195.699947521958,26282.4357477708
10.688360450563204,1018.4316487060885,1016.468604510741,0.33110135382775835,0.0,0.26019823916725754,0.1364685453528299,0.04795923279365299,1195.4138329533914,26302.216322447617
10.713391739674593,1019.0590918807623,1017.1763379824777,0.3323424385098091,1.187205867672768e-06,0.26054817184042095,0.13611058249033903,0.04797256547994262,1195.1384998911235,26321.9811744385
10.738423028785983,1019.6618324697239,1017.8650874504884,0.3335292975199703,7.451614886615464e-06,0.2608809648863077,0.13576966853304223,0.047986038846583874,1194.8747447644969,26341.729601743875
10.763454317897372,1020.2386335484094,1018.5309601557941,0.3346599237909723,1.897860945722522e-05,0.2611959970307588,0.13544642500349355,0.04799965414106542,1194.6229992632773,26361.460855274086
10.788485607008761,1020.78909203598,1019.1709718839177,0.33573428801633726,3.5613965346396915e-05,0.2614932619279964,0.1351408608081306,0.048013412185779814,1194.3832740581202,26381.174164776756
10.81351689612015,1021.3135609482076,1019.7832177534104,0.3367540567964023,5.718010188658337e-05,0.2617732811894452,0.1348524572560234,0.04802731353103384,1194.1552137277315,26400.868763692382
10.83854818523154,1021.8130036154938,1020.3668749326366,0.337722171060936,8.348546140605359e-05,0.2620369731297453,0.13458029917394151,0.04804135849572024,1193.9381876721004,26420.543910220746
10.863579474342929,1022.2888245100792,1020.9220711593921,0.3386423965708882,0.00011433316268746593,0.2622855128131807,0.1343232147285523,0.048055547225650995,1193.7313870798264,26440.198903291708
10.888610763454318,1022.7427081987481,1021.4496843841714,0.33951892564906777,0.00014952817375707818,0.2625202080380362,0.13407989933112863,0.048069879755958424,1193.533910855679,26459.833093287656
10.913642052565708,1023.1764841013811,1021.9511286187843,0.3403560677909036,0.00018888273579012452,0.2627424029829089,0.13384901190604223,0.04808435606837128,1193.3448323749592,26479.445888120103
10.938673341677097,1023.5920229496254,1022.4281604762568,0.3411580343954167,0.00023222011282099823,0.26295341115164333,0.1336292418860825,0.048098976138651404,1193.1632459302555,26499.036755606678
10.963704630788486,1023.9911634126219,1022.882721865372,0.34192880473662945,0.00027937692208371734,0.26315447361246525,0.1334193509356129,0.04811373997281938,1192.988295649276,26518.60522313999
10.988735919899876,1024.375663890082,1023.31682147908,0.34267205386742317,0.00033020435658574743,0.2633467365241136,0.1332181954042098,0.04812864763280092,1192.8191910507026,26538.150875521456
11.013767209011265,1024.7471736197986,1023.7324509709994,0.3433911236314739,0.00038456859607256013,0.26353124209044243,0.1330247353648153,0.048143699253069605,1192.6552133006965,26557.673351653917
11.038798498122652,1025.1072177452377,1024.131529196961,0.34408902141096287,0.0004423506550442032,0.2637089281581052,0.1328380350179319,0.048158895050129304,1192.4957154874285,26577.172340607183
11.063829787234042,1025.457191995088,1024.5158677438521,0.3447684352930539,0.0005034458614874152,0.2638806329334098,0.13265725798270828,0.04817423532658322,1192.3401193555096,26596.647577417312
11.088861076345431,1025.7983636857698,1024.8871518687301,0.34543175790489034,0.0005677631096335142,0.26404710240431617,0.13248165988665297,0.048189720471283844,1192.1879101722977,26616.098838861202
11.11389236545682,1026.1318766744305,1025.2469321784017,0.3460811139118265,0.000635223988797697,0.26420899890793875,0.13231057981195488,0.04820535095676587,1192.0386308055881,26635.525939360192
11.13892365456821,1026.458758609856,1025.5966235329365,0.3467183881241268,0.0007057618586646596,0.26436690989120615,0.1321434315496073,0.048221127334889854,1191.8918756712887,26654.92872710432
11.163954943679599,1026.779929362916,1025.937508619635,0.34734525246874215,0.0007793209180327526,0.2645213563207438,0.13197969520448527,0.04823705023139147,1191.7472849267563,26674.30708044675
11.188986232790988,1027.0962099001315,1026.2707443925513,0.3479631909266027,0.0008558552973119131,0.2646728004609551,0.13181890943189525,0.04825312033984371,1191.604539103451,26693.660904589302
11.214017521902377,1027.4083311301222,1026.59737012976,0.34857352205724806,0.000935328193364095,0.26482165290179027,0.13166066442378593,0.04826933841539376,1191.4633542601684,26712.990128562342
11.239048811013767,1027.716942434514,1026.918316263458,0.34917741904067384,0.0010177110572280532,0.2649682788137861,0.13150459566685635,0.04828570526852602,1191.3234776716934,26732.294702490588
11.264080100125156,1028.0226197170605,1027.2344134236032,0.3497759273377279,0.001102982839837662,0.26511300346148703,0.13135037844135422,0.048302221759020554,1191.1846840308299,26751.574595130056
11.289111389236545,1028.325872885418,1027.5464013351893,0.350369980156939,0.001191129297248403,0.26525611703343527,0.1311977230023469,0.04831888879021606,1191.046772123116,26770.829791657627
11.314142678347935,1028.6271527323763,1027.8549373467458,0.35096041195108163,0.0012821423545689818,0.26539787885803956,0.13104637037416067,0.04833570730364263,1190.9095619259622,26790.060291693408
11.339173967459324,1028.9268572164426,1028.1606044612588,0.3515479701725947,0.001376019526355208,0.2655385210765245,0.1308960886868207,0.0483526782740588,1190.7728920827255,26809.26610753555
11.364205256570713,1029.2253371619072,1028.463918803648,0.3521333255066217,0.001472763390380825,0.2656782518409946,0.13074666998650442,0.04836980270490467,1190.6366177044968,26828.447262587903
11.389236545682103,1029.5229014101858,1028.765336500558,0.3527170807820916,0.0015723811112594217,0.26581725809998036,0.13059792745769638,0.048387081624168604,1190.5006084563588,26847.60378996193
11.414267834793492,1029.8198214602842,1029.0652599751281,0.3532997787397928,0.0016748840102175017,0.26595570802718155,0.13044969300139128,0.048404516080654054,1190.3647468895235,26866.73573123525
11.439299123904881,1030.1163356386328,1029.364043676272,0.353881908814544,0.001780287177318031,0.2660937531423409,0.13030181512046826,0.04842210714062689,1190.2289269854725,26885.84313535101
11.46433041301627,1030.4126528386569,1029.6619992719816,0.354463913067827,0.0018886091225449218,0.266231530166744,0.13015415706980438,0.048439855884819555,1190.0930528827232,26904.926057643126
11.48936170212766,1030.7089558692555,1029.9594003417214,0.35504619138852794,0.0019998714623214596,0.2663691626500191,0.13000659523450556,0.04845776340576599,1189.957037760868,26923.98455897427
11.514392991239049,1031.0054044491635,1030.256486605188,0.35562910606252945,0.00211409863825833,0.26650676239965504,0.12985901770489242,0.04847583080544079,1189.8208028601946,26943.01870497432
11.539424280350438,1031.3021378816406,1030.5534677250525,0.3562129857972377,0.002231317665155737,0.2666444307400972,0.12971132302143001,0.048494059193176,1189.68427661836,26962.028565368553
11.564455569461828,1031.5992774413376,1030.8505267205187,0.35679812927464194,0.0023515579055055904,0.2667822596243904,0.12956341906667812,0.04851244968382953,1189.547393908271,26981.01421338565
11.589486858573217,1031.896928502432,1031.147823026811,0.35738480829563335,0.0024748508679702254,0.26692033261795467,0.12941522208471712,0.04853100339618054,1189.4100953636928,26999.975725236807
11.614518147684606,1032.1951824345153,1031.4454952335736,0.35797327056909306,0.002601230027531359,0.26705872577121065,0.12926665581137442,0.048549721451528416,1189.2723267810638,27018.913179658
11.639549436795996,1032.4941182902173,1031.7436635328695,0.3585637421914422,0.002730730665207736,0.26719750839533,0.12911765070100714,0.04856860497247338,1189.1340385877074,27037.82665750842
11.664580725907385,1032.7938043062545,1032.0424319050478,0.3591564298557167,0.0028633897254308704,0.26733674375332406,0.1289681432376626,0.0485876550818586,1188.9951853680418,27056.7162414187
11.689612015018774,1033.0942992374357,1032.3418900684194,0.35975152282363176,0.002999245689344793,0.26747648967693477,0.12881807532018044,0.048606872901855065,1188.855725440599,27075.582015483324
11.714643304130163,1033.3956535412178,1032.6421152163934,0.36034919468935533,0.003138338462458048,0.2676167991183128,0.1286673937122777,0.04862625955317219,1188.7156204796934,27094.424064992203
11.739674593241553,1033.6979104286224,1032.9431735636017,0.36094960495970907,0.0032807092752246293,0.2677577206442183,0.12851604954990598,0.048645816154378525,1188.5748351764282,27113.242476196894
11.76470588235294,1034.0011067957182,1033.2451217205253,0.36155290047212063,0.003426400595266045,0.2678992988794185,0.12836399789922592,0.048665543821318595,1188.433336934468,27132.037336107453
11.78973717146433,1034.3052740484127,1033.548007914299,0.3621592166687804,0.0035754560500699853,0.2680415749050621,0.12821119735944095,0.04868544366661287,1188.291095596618,27150.808732316396
11.814768460575719,1034.6104388319952,1033.8518730716607,0.36276867874301977,0.0037279203591128163,0.26818458661704636,0.12805760970549007,0.048705516799229694,1188.1480831987813,27169.556752846547
11.839799749687108,1034.916623675691,1034.1567517784617,0.36338140267185576,0.003883839274455028,0.26832836904874635,0.1279031995662467,0.04872576432411859,1188.0042737482952,27188.281486019896
11.864831038798497,1035.2238475614145,1034.4626731287356,0.3639974961468867,0.0040432595289504394,0.2684729546619237,0.12774793413442012,0.04874618734189601,1187.8596430240489,27206.983020345073
11.889862327909887,1035.5321264249783,1034.769661475036,0.3646170594142141,0.00420622879129354,0.2686183736091621,0.12759178290482495,0.04876678694857498,1187.714168396081,27225.66144442108
11.914893617021276,1035.841473597136,1035.0777370905823,0.3652401860327801,0.004372795627204754,0.2687646539707714,0.1274347174380881,0.04878756423533183,1187.567828662662,27244.3168468553
11.939924906132665,1036.1519001910794,1035.3869167526925,0.3658669635594049,0.004543009466121717,0.26891182196875946,0.1272767111472063,0.04880852028830307,1187.420603903072,27262.949316194146
11.964956195244055,1036.4634154423195,1035.6972142560348,0.3664974741678526,0.004716920572826468,0.2690599021601655,0.12711773910466487,0.048829656188407074,1187.2724753445184,27281.55894086453
11.989987484355444,1036.7760270062583,1036.0086408633492,0.3671317952084345,0.004894580023494417,0.26920891761180143,0.12695777786808654,0.04885097301118546,1187.123425241793,27300.145809125057
12.015018773466833,1037.0897412181996,1036.321205700521,0.3677699997139436,0.005076039685701553,0.26935889005821173,0.12679680532260043,0.048872471826659825,1186.9734367684246,27318.710009025446
12.040050062578223,1037.4045633200544,1036.6349161021808,0.36841215685709505,0.0052613522019721165,0.2695098400444776,0.126634800538316,0.0488941536991998,1186.822493918233,27337.25162837329
12.065081351689612,1037.7204976575372,1036.9497779133585,0.36905833236410324,0.005450570976490492,0.2696617870553167,0.12647174364145655,0.048916019687399635,1186.6705814162792,27355.770754707046
12.090112640801001,1038.0375478512533,1037.2657957521624,0.3697085888885526,0.005643750164638427,0.26981474963178,0.126307615697854,0.04893807084395979,1186.5176846383317,27374.26747527453
12.11514392991239,1038.3557169447172,1037.5829732379234,0.3703629863493021,0.005840944665052754,0.2699687454767185,0.12614239860763893,0.04896030821557164,1186.363789538041,27392.74187701603
12.14017521902378,1038.6750075320049,1037.901313188781,0.3710215822357902,0.006042210113929344,0.2701237915500757,0.12597607501007346,0.04898273284280282,1186.2088825811081,27411.19404655153
12.165206508135169,1038.9954218674675,1038.2208177922762,0.37168443188378597,0.006247602881327079,0.27027990415495684,0.12580862819757915,0.049005345759981556,1186.0529506857963,27429.624070171292
12.190237797246558,1039.3169619596545,1038.5414887521233,0.3723515887243337,0.006457180069250999,0.27043709901533985,0.12564004203810075,0.04902814799507852,1185.8959811691843,27448.032033829502
12.215269086357948,1039.6396296513801,1038.8633274140077,0.37302310450839077,0.006670999511313451,0.27059539134620564,0.1254703009050272,0.04905114056958491,1185.737961698646,27466.41802314031
12.240300375469337,1039.963426687628,1039.1863348729382,0.3736990295094095,0.006889119773797183,0.27075479591679613,0.12529938961396872,0.049074324498385564,1185.5788802480588,27484.782123376004
12.265331664580726,1040.2883547728266,1039.5105120644134,0.37437941270591535,0.00711160015796078,0.27091532710763994,0.12512729336574835,0.04909770078962657,1185.4187250583082,27503.124419466996
12.290362953692116,1040.6144156188416,1039.8358598414134,0.3750643019459453,0.007338500703443077,0.2710769989619293,0.12495399769502955,0.04912127044457634,1185.2574846016882,27521.444996003233
12.315394242803505,1040.9416109848867,1040.1623790390042,0.3757537440950375,0.007569882192638767,0.27123982523177803,0.12477948842405016,0.049145034457479884,1185.0951475498346,27539.743937236835
12.340425531914894,1041.2699427104135,1040.4900705281434,0.37644778516931315,0.007805806155930995,0.27140381941983976,0.12460375162098547,0.04916899381540565,1184.931702744859,27558.02132708573
12.365456821026283,1041.5994127419206,1040.8189352600953,0.37714647045504945,0.008046334877678994,0.27156899481672697,0.12442677356250238,0.04919314949808474,1184.7671391733913,27576.2772491381
12.390488110137673,1041.930023154519,1041.1489743027093,0.37784984461601684,0.008291531402869975,0.27173536453462493,0.12424854070010993,0.049217502477742335,1184.6014459432465,27594.511786657422
12.415519399249062,1042.2617761689773,1041.4801888696556,0.3785579517897403,0.008541459544354247,0.27190294153746564,0.12406903962994399,0.04924205371892102,1184.434612262476,27612.725022588053
12.440550688360451,1042.5946741649063,1041.8125803436053,0.3792708356737373,0.008796183890591742,0.2720717386679883,0.12388825706565937,0.04926680417829605,1184.2666274205758,27630.91703956116
12.465581977471839,1042.92871969064,1042.146150294211,0.37998853960269224,0.009055769813845918,0.27224176867198724,0.1237061798141303,0.04929175480448262,1184.09748077164,27649.08791990091
12.490613266583228,1043.2639154703218,1042.4809004916426,0.38071110661743796,0.009320283478768484,0.27241304422001816,0.12352279475368853,0.049316906537834895,1183.9271617192817,27667.237745630875
12.515644555694617,1043.6002644086263,1042.8168329163495,0.3814385795265372,0.009589791851324449,0.27258557792680893,0.12333808881465273,0.04934226031023728,1183.755659703144,27685.3665984805
12.540675844806007,1043.9377695935066,1043.1539497656308,0.3821710009611821,0.00986436270801339,0.27275938236860164,0.1231520489619253,0.04936781704488764,1183.5829641868506,27703.474559891667
12.565707133917396,1044.2764342972953,1043.492253457525,0.3829084134240682,0.010144064645347414,0.272934470098627,0.12296466217945368,0.049393577656072815,1183.4090646472544,27721.56171102524
12.590738423028785,1044.6162619764536,1043.8317466324645,0.38365085933283216,0.01042896708955126,0.27311085366089666,0.12277591545637191,0.04941954304893668,1183.2339505648542,27739.628132767542
12.615769712140175,1044.9572562702201,1044.1724321530864,0.38439838105859303,0.010719140306453986,0.2732885456024817,0.1225857957746555,0.04944571411924046,1183.0576114152716,27757.673905736785
12.640801001251564,1045.2994209983735,1044.5143131025318,0.38515102096008386,0.011014655411545376,0.2734675584844267,0.12239429009813813,0.04947209175311619,1182.8800366616722,27775.69911028942
12.665832290362953,1045.6427601583066,1044.8573927815357,0.38590882141381366,0.011315584380173382,0.27364790489143914,0.12220138536275359,0.04949867682681277,1182.701215748047,27793.703826526278
12.690863579474343,1045.9872779215618,1045.2016747045452,0.38667182484066,0.011622000057861927,0.27382959744047575,0.122007068467879,0.04952547020643544,1182.521138093262,27811.688134298667
12.715894868585732,1046.332978629977,1045.5471625950993,0.3874400737292518,0.011933976170730784,0.2740126487883399,0.12181132626866732,0.049552472747678405,1182.3397930858,27829.65211321428
12.740926157697121,1046.6798667915525,1045.8938603806419,0.38821361065646837,0.012251587336001565,0.2741970716383899,0.12161414556926856,0.04957968529555106,1182.1571700791249,27847.595842642928
12.76595744680851,1047.0279470761416,1046.2417721869379,0.3889924783053471,0.012574909072575852,0.27438287874644923,0.12141551311684806,0.049607108684098025,1181.9732583876034,27865.519401722126
12.7909887359199,1047.3772243110504,1046.590902332217,0.38977671948066717,0.012904017811673139,0.2745700829260019,0.12121541559632062,0.04963474373611301,1181.788047282933,27883.422869362552
12.816020025031289,1047.7277034766134,1046.9412553211648,0.39056637712244346,0.013238990907517798,0.2747586970527463,0.12101383962572587,0.04966259126284696,1181.6015259910148,27901.306324253255
12.841051314142678,1048.0793897018057,1047.2928358388565,0.391361494317549,0.013579906648065614,0.27494873406857295,0.12081077175217914,0.04969065206371043,1181.413683689238,27919.16984486678
12.866082603254068,1048.4322882599422,1047.645648744705,0.39216211430965486,0.013926844265761528,0.27514020698502767,0.12060619844833817,0.04971892692597056,1181.2245095041199,27937.01350946411
12.891113892365457,1048.7864045644958,1047.9996990664995,0.3929682805076621,0.014279883948322063,0.2753331288863119,0.1204001061093321,0.04974741662444281,1181.0339925092799,27954.83739609942
12.916145181476846,1049.1417441650729,1048.3549919945742,0.3937800364927788,0.014639106849534598,0.27552751293186856,0.12019248105010502,0.04977612192117752,1180.842121723699,27972.641582624754
12.941176470588236,1049.4983127435657,1048.711532876162,0.39459742602438197,0.015004595100066274,0.27572337235859656,0.11998330950313178,0.04980504356514169,1180.6488861102482,27990.42614669446
12.966207759699625,1049.8561161105035,1049.0693272099586,0.3954204930447858,0.015376431818280082,0.2759207204827314,0.11977257761646741,0.04983418229189593,1180.4542745744504,28008.191165769564
12.991239048811014,1050.215160201615,1049.4283806409248,0.3962492816830286,0.015754701121052338,0.2761195707014264,0.11956027145209625,0.04986353882326702,1180.258275963454,28025.936717122
13.016270337922403,1050.5754510746103,1049.7886989553472,0.39708383625777494,0.01613948813458702,0.27631993649406483,0.11934637698455053,0.04989311386701595,1180.0608790652022,28043.66287783868
13.041301627033793,1050.9369949061916,1050.150288076171,0.397924201279422,0.016530879005222855,0.2765218314233296,0.11913088009977178,0.0499229081165018,1179.8620726077695,28061.369724825512
13.066332916145182,1051.299797989294,1050.5131540586099,0.3987704214514852,0.016928960910229357,0.2767252691360542,0.11891376659419067,0.04995292225034167,1179.6618452588573,28079.057334811194
13.091364205256571,1051.6638667305583,1050.8773030860464,0.39962254167133426,0.017333822068587985,0.27693026336387694,0.11869502217400464,0.049983156932066584,1179.4601856254328,28096.725784351074
13.11639549436796,1052.0292076480323,1051.2427414662118,0.400480607030339,0.01774555175175502,0.2771368279237155,0.11847463245463437,0.0500136128097738,1179.2570822534894,28114.375149830747
13.14142678347935,1052.3958273691017,1051.6094756276573,0.4013446628134794,0.018164240294402546,0.2773449767180807,0.11825258296034273,0.05004429051577551,1179.0525236279304,28132.00550746967
13.16645807259074,1052.763732628642,1051.9775121165048,0.40221475449846666,0.01858997910513414,0.2775547237352406,0.11802885912400186,0.05007519066624407,1178.8464981725542,28149.61693332466
13.191489361702127,1053.1329302673919,1052.3468575934753,0.40309092775441674,0.01902286067717167,0.27776608304925104,0.11780344628699534,0.05010631386085411,1178.6389942501398,28167.209503293314
13.216520650813516,1053.5034272305356,1052.7175188311885,0.40397322844011396,0.019462978599009948,0.27797906881986173,0.11757632969924456,0.05013766068242134,1178.43000016262,28184.783293117383
13.241551939924905,1053.8752305664948,1053.0895027117242,0.40486170260189486,0.01991042756503509,0.27819369529230764,0.11734749451934978,0.05016923169653858,1178.219504151338,28202.338378386034
13.266583229036295,1054.2483474259157,1053.4628162244403,0.40575639647118183,0.020365303386103508,0.2784099767969951,0.11711692581483704,0.05020102745120878,1178.0074943973802,28219.874834539132
13.291614518147684,1054.6227850608516,1053.8374664640355,0.4066573564616898,0.02082770300007722,0.27862792774908895,0.11688460856250385,0.050233048476475584,1177.7939590219817,28237.392736870384
13.316645807259073,1054.998550824128,1054.2134606288482,0.40756462916632663,0.021297724482311646,0.2788475626480077,0.11665052764885739,0.05026529528405108,1177.5788860869955,28254.892160530526
13.341677096370463,1055.3756521688863,1054.5908060193842,0.4084782613538062,0.021775467056091753,0.2790688960768309,0.11641466787063987,0.0502977683669414,1177.3622635954302,28272.37318053039
13.366708385481852,1055.7540966482954,1054.9695100370586,0.4093982999649892,0.022261031103012096,0.27929194270162583,0.11617701393543613,0.050330468199069965,1177.144079492041,28289.835871743984
13.391739674593241,1056.1338919154286,1055.3495801831502,0.4103247921089647,0.022754518173296278,0.2795167172706937,0.11593755046236022,0.05036339523489857,1176.9243216639845,28307.28030891155
13.41677096370463,1056.515045723297,1055.7310240579484,0.4112577850588843,0.023256030996051023,0.2797432346137429,0.11569626198281681,0.050396549909046615,1176.7029779415218,28324.706566642533
13.44180225281602,1056.8975659250257,1056.1138493600947,0.4121973262475571,0.0237656734894499,0.27997150964098755,0.11545313294133573,0.05042993263590842,1176.4800360987797,28342.11471941862
13.466833541927409,1057.2814604741816,1056.4980638861007,0.41314346326281604,0.02428355077084143,0.2802015573421776,0.11520814769647657,0.050463543809268895,1176.2554838545582,28359.504841596656
13.491864831038798,1057.6667374252288,1056.8836755300379,0.4140962438426581,0.024809769166776113,0.28043339278555945,0.11496129052180191,0.05049738380191767,1176.0293088731928,28376.877007411647
13.516896120150188,1058.0534049341188,1057.2706922833922,0.41505571587016765,0.025344436222946697,0.2806670311167703,0.11471254560691806,0.05053145296526184,1175.8014987654597,28394.231290979707
13.541927409261577,1058.4414712590042,1057.6591222350714,0.4160219273682244,0.025887660714035608,0.28090248755766584,0.11446189705858144,0.05056575162893741,1175.5720410895347,28411.567766300952
13.566958698372966,1058.8309447610668,1058.0489735715614,0.416994926494001,0.026439552653463406,0.2811397774050831,0.11420932890187079,0.050600280100419705,1175.340923351995,28428.886507262483
13.591989987484355,1059.2218339054675,1058.4402545772207,0.4179747615332514,0.02700022330303191,0.2813789160295391,0.11395482508142389,0.05063503866463279,1175.1081330088684,28446.187587641307
13.617021276595745,1059.6141472623963,1058.8329736347093,0.4189614808943932,0.02756978518245642,0.28161991887386467,0.11369836946273885,0.05067002758355805,1174.8736574667325,28463.471081107255
13.642052565707134,1060.0078935082306,1059.2271392255461,0.41995513310238314,0.028148352078775675,0.28186280145177445,0.11343994583353999,0.05070524709584221,1174.6374840838562,28480.737061225966
13.667083854818523,1060.403081426791,1059.6227599307815,0.42095576679238855,0.028736039055635137,0.2821075793463721,0.11317953790520824,0.05074069741640478,1174.3996001713879,28497.985601461787
13.692115143929913,1060.799719910695,1060.01984443179,0.4219634307032529,0.02933296246243659,0.2823542682085917,0.11291712931427625,0.05077637873604522,1174.1599929945946,28515.216775180776
13.717146433041302,1061.1978179628,1060.41840151117,0.42297817367075674,0.029939239943345273,0.28260288375557435,0.11265270362398848,0.05081229122104985,1173.9186497741423,28532.430655653636
13.742177722152691,1061.5973846977338,1060.8184400537475,0.4240000446206729,0.03055499044614612,0.28285344176897886,0.112386244325927,0.05084843501279877,1173.675557687426,28549.62731605874
13.76720901126408,1061.9984293435132,1061.2199690476814,0.4250290925616143,0.031180334230940705,0.2831059580932279,0.11211773484170341,0.05088481022737293,1173.4307038699474,28566.8068294851
13.79224030037547,1062.4009612432403,1061.6229975856616,0.4260653665776739,0.03181539287867575,0.28336044863368687,0.11184715852471748,0.05092141695516138,1173.1840754167376,28583.969268935394
13.81727158948686,1062.8049898568806,1062.0275348662,0.42710891582085586,0.03246028929949409,0.2836169293547756,0.11157449866198318,0.05095825526046915,1172.935659383833,28601.114707329027
13.842302878598248,1063.210524763113,1062.4335901950094,0.4281597895032954,0.03311514774089864,0.28387541627801366,0.1112997384760234,0.050995325181125525,1172.6854427897938,28618.243217505176
13.867334167709638,1063.617575661259,1062.841172986464,0.4292180368892656,0.03378009379571906,0.2841359254799952,0.11102286112683336,0.0510326267280934,1172.4334126172764,28635.354872225875
13.892365456821025,1064.0261523732765,1063.2502927651437,0.43028370728697013,0.0344552544098715,0.284398473090296,0.11074384971391428,0.05107015988507925,1172.179555814654,28652.44974417913
13.917396745932415,1064.4362648458282,1063.6609591674526,0.43135685004012014,0.03514075788990041,0.28466307528930906,0.11046268727837781,0.05110792460814451,1171.923859297686,28669.527905982075
13.942428035043804,1064.8479231524116,1064.073181943314,0.432437514519291,0.03583673391029138,0.2849297483060099,0.11017935680512249,0.05114592082531814,1171.6663099512418,28686.58943018412
13.967459324155193,1065.261137495558,1064.4869709579398,0.4335257501130605,0.036543313520544386,0.2851985084156492,0.10989384122508296,0.05118414843621061,1171.4068946310733,28703.63438927015
13.992490613266582,1065.6759182090916,1064.9023361936638,0.4346216062189226,0.03726062915199524,0.2854693719373728,0.10960612341755292,0.051222607311629635,1171.145600165641,28720.662855663766
14.017521902377972,1066.0922757604524,1065.319287751849,0.4357251322339778,0.03798881462437341,0.2857423552317673,0.10931618621258306,0.051261297293197707,1170.8824133579935,28737.67490173054
14.042553191489361,1066.5102207530747,1065.737835854856,0.43683637754539556,0.038728005152084084,0.28601747469833094,0.10902401239345468,0.05130021819297159,1170.6173209877,28754.6705997813
14.06758448060075,1066.9297639288295,1066.1579908480755,0.43795539152064783,0.039478337350201495,0.286294746772869,0.10872958469923028,0.051339369793064075,1170.350309812836,28771.650022075497
14.09261576971214,1067.3509161705174,1066.5797632020235,0.4390822234975116,0.04023994924016058,0.2865741879248114,0.10843288582738192,0.05137875184526806,1170.0813665720289,28788.613240824507
14.117647058823529,1067.7736885044217,1067.0031635144965,0.4402169227738376,0.041012980255133516,0.2868558146544537,0.10813389843649863,0.05141836407068314,1169.8104779865519,28805.560328195115
14.142678347934918,1068.1980921029115,1067.4282025127832,0.4413595385970833,0.04179757124507718,0.2871396434901179,0.10783260514907353,0.05145820615934509,1169.5376307624817,28822.49135631289
14.167709637046308,1068.6241382871,1067.8548910559343,0.44251012015360863,0.04259386448143744,0.2874256909852352,0.10752898855437208,0.05149827776985811,1169.262811592909,28839.406397265724
14.192740926157697,1069.051838529554,1068.2832401370868,0.44366871655773155,0.04340200366149554,0.2877139737153465,0.10722303121138217,0.05153857852903019,1168.9860071602072,28856.30552310729
14.217772215269086,1069.4812044570506,1068.713260885844,0.4448353768405424,0.04422213391234161,0.2880045082750223,0.10691471565184724,0.05157910803151198,1168.7072041383628,28873.188805860675
14.242803504380475,1069.912247853386,1069.1449645707046,0.4460101499384741,0.04505440179445973,0.2882973112746999,0.10660402438338311,0.05161986583943885,1168.426389195362,28890.056317521932
14.267834793491865,1070.3449806622293,1069.578362601547,0.4471930846816269,0.04589895530490902,0.2885923993374371,0.10629093989268017,0.05166085148207687,1168.143548995637,28906.908130063763
14.292866082603254,1070.7794149900255,1070.013466532161,0.4483842297818457,0.046755943880084104,0.288889789095582,0.10597544464879083,0.05170206445547253,1167.858670202578,28923.7443154392
14.317897371714643,1071.2155631089406,1070.450288062829,0.4495836338205485,0.04762551839803972,0.28918949718735687,0.10565752110650439,0.05174350422210651,1167.5717394810981,28940.56494558535
14.342928660826033,1071.6534374598516,1070.888839042957,0.4507913452363031,0.04850783118036086,0.2894915402533569,0.1053371517098092,0.05178517021055176,1167.2827435002694,28957.370092427165
14.367959949937422,1072.0930506553802,1071.329131473748,0.45200741231215286,0.04940303599355814,0.28979593493296185,0.10501431889544384,0.05182706181513603,1166.991668936015,28974.159827881293
14.392991239048811,1072.5344154829663,1071.7711775109242,0.4532318831626872,0.05031128804997525,0.29010269786066,0.10468900509653747,0.05186917839560897,1166.6985024738688,28990.934223859927
14.4180225281602,1072.9775449079812,1072.2149894674917,0.4544648057208575,0.05123274400818832,0.29041184566228384,0.10436119274634093,0.05191151927681413,1166.4032308117946,29007.69335227478
14.44305381727159,1073.4224520768814,1072.6605798165483,0.4557062277245362,0.05216756197287837,0.29072339495115695,0.10403086428204872,0.05195408374836591,1166.1058406630764,29024.437285041
14.46808510638298,1073.8691503203972,1073.1079611941354,0.45695619670281745,0.05311590149415733,0.2910373623241507,0.10369800214871336,0.0519968710643317,1165.806318759268,29041.166094081218
14.493116395494368,1074.3176531567578,1073.5571464021264,0.4582147599620594,0.054077923566327964,0.29135376435765076,0.10336258880325244,0.05203988044291946,1165.5046518532106,29057.87985132965
14.518147684605758,1074.7679742949529,1074.008148411157,0.459481964571666,0.05505379062605748,0.29167261760343216,0.10302460671854914,0.052083111066170806,1165.2008267221186,29074.578628736162
14.543178973717147,1075.220127638022,1074.460980363595,0.46075785734960767,0.05604366654994406,0.2919939385844432,0.10268403838764727,0.05212656207965993,1164.8948301707292,29091.262498270484
14.568210262828536,1075.6741272863799,1074.9156555765428,0.4620424848476805,0.05704771665145524,0.2923177437904965,0.1023408663280413,0.0521702325921984,1164.586649034523,29107.931531926417
14.593241551939926,1076.1299875411678,1075.3721875448791,0.46333589333650305,0.058066107677216455,0.29264404967386737,0.10199507308606194,0.05221412167554612,1164.2762701830102,29124.58580172611
14.618272841051313,1076.5877229076334,1075.8305899443312,0.4646381287902493,0.05909900780262765,0.29297287264479877,0.10164664124135812,0.05225822836412863,1163.963680523086,29141.225379724383
14.643304130162702,1077.047348098536,1076.2908766345834,0.4659492368711191,0.06014658662678572,0.2933042290669126,0.10129555341147595,0.052302551654760845,1163.6488670024562,29157.850338013122
14.668335419274092,1077.5088780375775,1076.753061662412,0.46726926291354465,0.06120901516668874,0.2936381352525266,0.10094179225653498,0.05234709050637747,1163.331816613132,29174.460748725673
14.693366708385481,1077.9723278628492,1077.217159264854,0.4685982519081321,0.06228646585069981,0.2939746074578765,0.1005853404840026,0.05239184383977031,1163.0125163949945,29191.05668404137
14.71839799749687,1078.4377129303057,1077.6831838723997,0.4699362484853405,0.06337911251124549,0.2943136618782433,0.10022618085356676,0.05243681053733254,1162.6909534394301,29207.638216190022
14.74342928660826,1078.90504881725,1078.1511501122127,0.4712832968988962,0.06448713037672477,0.29465531464298544,0.09986429618210764,0.05248198944281015,1162.367114893037,29224.205417456542
14.768460575719649,1079.3743513258364,1078.6210728113738,0.4726394410089435,0.06561069606260334,0.2949995818104746,0.09949966934876871,0.052527379361060854,1162.0409879614035,29240.75836018556
14.793491864831038,1079.845636486584,1079.0929670001465,0.4740047242649328,0.06674998756166797,0.2953464793629372,0.09913228330012726,0.05257297905782034,1161.7125599129572,29257.297116786136
14.818523153942428,1080.3189205619026,1079.5668479152625,0.4753791896882451,0.06790518423341493,0.295696023201198,0.09876212105546499,0.05261878725947638,1161.3818180828864,29273.821759736467
14.843554443053817,1080.7942200496225,1080.0427310032248,0.47676287985455573,0.06907646679254574,0.2960482291393302,0.09838916571213883,0.052664802652850624,1161.0487498771365,29290.332361588746
14.868585732165206,1081.2715516865308,1080.5206319236265,0.4781558368759365,0.07026401729654383,0.2964031128992068,0.09801340045105213,0.05271102388498849,1160.7133427764754,29306.82899497395
14.893617021276595,1081.750932451909,1081.0005665524818,0.4795581023826976,0.07146801913230434,0.29676069010495765,0.09763480854222635,0.0527574495629571,1160.3755843406348,29323.311732606788
14.918648310387985,1082.232379571068,1081.4825509855702,0.4809697175049713,0.07268865700178916,0.29712097627733,0.0972533733504736,0.0528040782536516,1160.0354622125235,29339.780647290623
14.943679599499374,1082.7159105188784,1081.9666015417854,0.4823907228540382,0.0739261169066791,0.2974839868279529,0.09686907834116995,0.052850908483609765,1159.6929641225147,29356.235811922492
14.968710888610763,1083.2015430232939,1082.4527347664905,0.48382115850339763,0.07518058613199427,0.2978497370535062,0.09648190708612929,0.05289793873883529,1159.3480778928083,29372.677299498173
14.993742177722153,1083.6892950688605,1082.9409674348792,0.4852610639695833,0.07645225322865289,0.2982182421297936,0.09609184326957809,0.052945167464629676,1159.0007914418638,29389.10518311727
15.018773466833542,1084.1791849002134,1083.4313165553308,0.4867104781927287,0.07774130799493989,0.2985895171057207,0.09569887069423076,0.05299259306543296,1158.6510927889128,29405.519535988366
15.043804755944931,1084.6712310255527,1083.9237993727656,0.4881694395168791,0.07904794145685544,0.29896357689717806,0.09530297328746554,0.05304021390467331,1158.2989700585395,29421.920431434275
15.06883604505632,1085.165452220098,1084.4184333719934,0.4896379856700589,0.0803723458473089,0.2993404362808296,0.0949041351076005,0.05308802830462576,1157.9444114853395,29438.307942897227
15.09386733416771,1085.6618675295133,1084.915236281049,0.49111615374409345,0.08171471458413007,0.29972010988780745,0.0945023403502693,0.05313603454628005,1157.5874054186538,29454.68214394424
15.1188986232791,1086.160496273303,1085.4142260745168,0.49260398017418794,0.08307524224686678,0.300102612197313,0.09409757335489688,0.05318423086921776,1157.2279403273722,29471.043108272403
15.143929912390488,1086.6613580481703,1085.9154209768367,0.4941015007182656,0.08445412455233595,0.30048795753012464,0.09368981861127405,0.053232615471498754,1156.8660048048162,29487.390909714322
15.168961201501878,1087.164472731339,1086.4188394655885,0.4956087504360713,0.08585155832889574,0.30087616004201423,0.09327906076623106,0.05328118650955703,1156.5015875736942,29503.725622243543
15.193992490613267,1087.6698604838246,1086.9245002747534,0.49712576366803984,0.08726774148940615,0.3012672337170709,0.09286528463040937,0.053329942098106105,1156.1346774911294,29520.047319980018
15.219023779724656,1088.1775417536624,1087.4324223979424,0.49865257401393576,0.08870287300284466,0.30166119236093536,0.09244847518513087,0.05337888031005404,1155.7652635537654,29536.35607719566
15.244055068836046,1088.6875372790741,1087.9426250915947,0.5001892143112667,0.09015715286454346,0.30205804959394283,0.09202861758936424,0.05342799917642805,1155.3933349029426,29552.651968319886
15.269086357947435,1089.19986809158,1088.4551278781355,0.5017357166134738,0.09163078206501447,0.30245781884417877,0.09160569718678753,0.053477296686308864,1155.0188808299479,29568.935067945215
15.294117647058824,1089.714555519041,1088.9699505490926,0.503292112167905,0.09312396255732792,0.30286051334044534,0.09117969951294592,0.053526770786774876,1154.6418907813422,29585.20545083296
15.319148936170212,1090.2316211886327,1089.4871131681637,0.5048584313935742,0.09463689722300944,0.3032661461051421,0.09075061030250461,0.053576419382856115,1154.262354364357,29601.463191918854
15.344180225281601,1090.7510870297422,1090.0066360742328,0.5064347038587106,0.0961697898364223,0.3036747299470601,0.09031841549659463,0.05362624033749801,1153.8802613523644,29617.708366318777
15.36921151439299,1091.272975276779,1090.5285398843291,0.5080209582581042,0.09772284502759718,0.3040862774540922,0.08988310125025194,0.05367623147153506,1153.4956016904218,29633.941049334535
15.39424280350438,1091.7973084719008,1091.0528454965188,0.5096172223902512,0.09929626824347686,0.3045008009858603,0.08944465393994773,0.05372639056367456,1153.108365500886,29650.1613164596
15.419274092615769,1092.3241094676412,1091.5795740927354,0.5112235231343052,0.10089026570753845,0.30491831266626057,0.08900306017120918,0.05377671535048993,1152.7185430891025,29666.36924338492
15.444305381727158,1092.8534014294362,1092.1087471415265,0.5128398864268392,0.10250504437775806,0.3053388243759283,0.08855830678632957,0.053827203526424346,1152.326124949162,29682.564906004773
15.469336670838548,1093.3852078380428,1092.6403864007295,0.5144663372384249,0.10414081190288187,0.3057623477446244,0.08811038087216608,0.05387785274380391,1151.9311017697307,29698.748380422607
15.494367959949937,1093.9195524918398,1093.1745139200534,0.5161028995500333,0.10579777657696754,0.30618889414354483,0.0876592697680243,0.05392866061286106,1151.53346443995,29714.919742956914
15.519399249061326,1094.4564595090092,1093.7111520435724,0.5177495963292634,0.10747614729216,0.30661847467755377,0.08720496107362778,0.053979624701767565,1151.1332040554043,29731.079070147138
15.544430538172715,1094.9959533295819,1094.2503234121161,0.519406449506408,0.10917613348966514,0.3070511001773444,0.08674744265717109,0.05403074253667765,1150.73031192416,29747.226438759568
15.569461827284105,1095.538058717354,1094.7920509655585,0.5210734799503579,0.11089794510888534,0.30748678119152667,0.08628670266345503,0.054082011601780736,1150.3247795728719,29763.36192579328
15.594493116395494,1096.0828007616485,1095.3363579449908,0.5227507074443546,0.11264179253468078,0.3079255279786458,0.08582272952210196,0.054133429339363937,1149.9165987529552,29779.485608486062
15.619524405506883,1096.6302048789305,1095.8832678947724,0.5244381506615995,0.11440788654272008,0.308367350499133,0.08535551195584981,0.05418499314988442,1149.5057614468283,29795.597564320346
15.644555694618273,1097.1802968142567,1096.4328046644607,0.5261358271407218,0.11619643824288475,0.3088122584071898,0.08488503898892295,0.05423670039205122,1149.0922598742177,29811.697871029188
15.669586983729662,1097.7331026425597,1096.9849924105977,0.5278437532611187,0.11800765902069116,0.3092602610426088,0.0844112999554777,0.054288548382916677,1148.6760864985276,29827.78660660215
15.694618272841051,1098.2886487697483,1097.5398555983606,0.5295619442181695,0.11984176047669452,0.309711367422534,0.08393428450812096,0.05434053439797743,1148.2572340332795,29843.863849291298
15.71964956195244,1098.8469619336254,1098.0974190030597,0.5312904139983363,0.12169895436383991,0.3101655862331605,0.08345398262649943,0.054392655671284595,1147.8356954486064,29859.929677617103
15.74468085106383,1099.4080692046082,1098.6577077114744,0.533029175354155,0.12357945252272491,0.3106229258213778,0.08297038462595809,0.0544449093955633,1147.4114639778159,29875.984170374366
15.76971214017522,1099.971997986244,1099.2207471230265,0.5347782397791258,0.1254834668147388,0.3110833941863594,0.08248348116626503,0.054497292722341335,1146.9845331240115,29892.027406638128
15.794743429286608,1100.53877601551,1099.786562950775,0.5365376174825174,0.12741120905304487,0.3115469989711006,0.08199326326039985,0.05454980276208692,1146.5548966667739,29908.059465769544
15.819774718397998,1101.1084313628921,1100.3551812222279,0.5383073173640855,0.1293628909313726,0.31201374745390725,0.0814997222834044,0.05460243658435531,1146.1225486688998,29924.080427421766
15.844806007509387,1101.6809924322267,1100.9266282799579,0.5400873469887172,0.13133872395058577,0.3124836465398374,0.08100284998129277,0.054655191217944064,1145.6874834832024,29940.090371545735
15.869837296620776,1102.2564879603044,1101.500930782018,0.5418777125610114,0.13333891934299463,0.31295670275210047,0.0805026384800185,0.05470806365105701,1145.2496957593626,29956.089378396013
15.894868585732166,1102.8349470162127,1102.0781157021445,0.5436784188998023,0.1353636879943802,0.3134329222234149,0.07999908029449598,0.054761050831476525,1144.8091804508385,29972.077528536523
15.919899874843555,1103.4163990004265,1102.6582103297383,0.5454894694126377,0.13741324036370017,0.31391231068732733,0.07949216833767365,0.05481414966674414,1144.3659328218303,29988.054902846252
15.944931163954944,1104.0008711496862,1103.2412364662707,0.54731084952802,0.13948781373695252,0.31439486864916905,0.07898190072487069,0.05486735714868978,1143.9199516354026,30004.021880011605
15.969962453066334,1104.588350168188,1103.82711622305,0.549142236338011,0.14158814855120896,0.3148805067193183,0.07846836501658333,0.05492067256555259,1143.471295052501,30019.984328301536
15.994993742177723,1105.1788635409346,1104.4158547048144,0.5509834904635724,0.14371467089479026,0.3153691888535576,0.07795159574610067,0.054974093849988505,1143.0199861271278,30035.94471754483
16.020025031289112,1105.772459730818,1105.0075048376896,0.5528346042684676,0.14586758538786276,0.31586091737407784,0.07743158928259575,0.05502761790990354,1142.5660226329344,30051.90311236225
16.0450563204005,1106.3691861360135,1105.602117863408,0.5546955686350576,0.14804709646531572,0.3163556941680507,0.07690834242471026,0.05508124161906328,1142.1094026624135,30067.859578296553
16.07008760951189,1106.969089216824,1106.199743523396,0.5565663729458462,0.15025340824357264,0.31685352068169426,0.07638185240742366,0.055134961817130096,1141.6501246335229,30083.814181786973
16.09511889862328,1107.5722146103974,1106.800430225697,0.5584470050647976,0.152486724388702,0.3173543979141891,0.07585211690904457,0.05518877530972197,1141.1881872963158,30099.766990146672
16.12015018773467,1108.178607234369,1107.4042251962428,0.5603374513184647,0.15474724798548709,0.3178583264114629,0.07531913405831096,0.05524267886849121,1140.7235897395813,30115.71807154272
16.14518147684606,1108.7883113803866,1108.0111746158418,0.5622376964769622,0.157035181407139,0.3183653062598589,0.07478290244158636,0.05529666923122112,1140.2563313974897,30131.667494978432
16.170212765957448,1109.4013707983822,1108.6213237441418,0.5641477237348193,0.15935072618536295,0.31887533707970445,0.0742434211101411,0.055350743101939374,1139.7864120562474,30147.615330277855
16.195244055068837,1110.0178287723895,1109.2347170316925,0.5660675146917402,0.1616940828805086,0.3193884180187916,0.07370068958750726,0.05540489715104646,1139.3138318607582,30163.561648072104
16.220275344180227,1110.637728188617,1109.8513982211555,0.5679970493333025,0.16406545095155853,0.319904547745784,0.07315470787689797,0.055459128015457944,1138.8385913212908,30179.50651978748
16.245306633291616,1111.2611115964326,1110.4714104385823,0.5699363060116165,0.1664650286257258,0.3204237244435612,0.07260547646868157,0.05551343229875927,1138.3606913201531,30195.45001763506
16.270337922403005,1111.8880212628535,1111.0947962756313,0.5718852614259751,0.16889301276745178,0.3209459458025115,0.07205299634790227,0.05556780657137202,1137.8801331183745,30211.39221460169
16.295369211514394,1112.518499221074,1111.7215978634856,0.5738438906035102,0.17134959874661126,0.32147120901378307,0.07149726900183939,0.055622247370730495,1137.3969183623908,30227.333184442232
16.320400500625784,1113.1525873135242,1112.3518569391836,0.575812166879884,0.17383498030574854,0.3219995107625034,0.07093829642759769,0.05567675120146761,1136.911049090737,30243.273001672867
16.345431789737173,1113.790327229898,1112.9856149049951,0.5777900618800292,0.17634934942618108,0.32253084722097547,0.07037608113972171,0.055731314535609214,1136.4225277407447,30259.21174156538
16.370463078848562,1114.4317605405556,1113.622912881433,0.5797775454989609,0.17889289619282453,0.32306521404186045,0.06981062617782756,0.0557859338127759,1135.9313571552425,30275.149480142325
16.395494367959948,1115.0769287256614,1114.263791754412,0.5817745858826756,0.18146580865760195,0.3236026063513514,0.06924193511424642,0.05584060544039146,1135.437540589261,30291.086294172914
16.420525657071337,1115.72587320039,1114.9082922170528,0.5837811494091572,0.18406827270131776,0.32414301874235013,0.0686700120616727,0.055895325793897374,1134.9410817167422,30307.022261169575
16.445556946182727,1116.3786353364947,1115.5564548065406,0.5857972006695008,0.18670047189387834,0.32468644526764934,0.06809486168081312,0.055950091216972184,1134.4419846372489,30322.957459385114
16.470588235294116,1117.0352564805141,1116.2083199364547,0.5878227024491718,0.1893625873527651,0.32523287943312984,0.06751648918803003,0.056004898021755546,1133.9402538826766,30338.891967810316
16.495619524405505,1117.6957779688587,1116.8639279249076,0.5898576157094194,0.19205479759966998,0.3257823141909787,0.0669349003629735,0.05605974248907585,1133.435894423968,30354.825866171996
16.520650813516895,1118.3602411399984,1117.5233190188262,0.5919018995688536,0.1947772784152158,0.32633474193293416,0.0663501015561977,0.05611462086868125,1132.9289116778232,30370.759234931364
16.545682102628284,1119.0286873439538,1118.1865334146617,0.5939555112851976,0.19753020269168578,0.32689015448356273,0.06576209969675705,0.0561695293794729,1132.4193115134108,30386.692155282726
