z,T,t,fs,fl,x,y,w,rhob,p
0.0,634.4167573090821,505.0,0.0,0.0,0.16090764412261085,0.23690028580809394,0.04773140375431301,1268.0,14330.0
0.08032128514056225,694.2834474676581,596.5414097869366,0.00033785886216443063,0.0,0.16101245896175065,0.23679547092751582,0.047731403688785104,1267.9269413636728,14426.094981614591
0.1606425702811245,739.121884736838,664.4854802657061,0.0009811230298946076,0.0,0.16121201884850675,0.23659590978463327,0.04773140170242587,1267.7878408295871,14533.464634776929
0.24096385542168675,773.1963142673203,715.7765309104118,0.001927033780271621,0.0,0.16150545592297622,0.23630246161010557,0.04773138414949445,1267.5832874528587,14649.112818477026
0.321285140562249,799.3630284742366,754.9581364681126,0.003144383832927795,0.0,0.1618830508005756,0.23592481857006936,0.04773130798847977,1267.3200058672028,14770.738420139829
0.40160642570281124,819.6157751138085,785.1498320083621,0.004595431612853933,0.0,0.1623330267946706,0.2354747083949778,0.04773109580337525,1267.0061148115071,14896.578558902243
0.4819277108433735,835.3884169935676,808.5681163641086,0.0062445432359767026,0.0,0.16284424709087544,0.23496320873560658,0.04773065403746458,1266.6492683965412,15025.284498806062
0.5622489959839357,847.7351219783213,826.8278293498406,0.008060903236393236,0.0,0.16340707959880038,0.23439989945139686,0.0477299000982559,1266.2560848169521,15155.825732838892
0.642570281124498,857.4437525143809,841.1275962950332,0.010018880797006156,0.0,0.16401352632452354,0.23379274458947755,0.047728780308327286,1265.8320770120672,15287.416338769583
0.7228915662650602,865.1124207640557,852.3723955614129,0.012113972021673695,0.0,0.16466217220663731,0.2331431457671288,0.04772727341310714,1265.3782072349297,15419.45860096517
0.8032128514056225,871.196929814906,861.2490962012207,0.01433803543541582,0.0,0.16535049680853967,0.23245362655415097,0.047725384372633795,1264.8962387200315,15551.50023930991
0.8835341365461847,876.045118934769,868.2805050067475,0.016658518194851202,0.0,0.1660684216723549,0.23173427950797867,0.0477231354877378,1264.3932229364734,15683.19972646882
0.963855421686747,879.9279590087315,873.8727217629537,0.01906471888165941,0.0,0.1668126552708139,0.2309884159717537,0.04772055809731914,1263.8714911637092,15814.301149394189
1.0441767068273093,883.0558934277444,878.3404870523573,0.021548116562946706,0.0,0.16758058511595506,0.2302186701626836,0.04771768656443257,1263.332904834019,15944.614613527385
1.1244979919678715,885.5928789254963,881.9286006130277,0.024101945329365097,0.0,0.16837014246150678,0.22942713209282645,0.04771455451786668,1262.7789454709432,16074.000997748575
1.2048192771084336,887.6669656727195,884.8279790743951,0.026720848401275695,0.0,0.16917969319207318,0.22861545537704073,0.0477111927922007,1262.2107883542844,16202.360189780693
1.285140562248996,889.3783469336535,887.1878235901071,0.029400598870547693,0.0,0.17000795038983724,0.2277849440834047,0.04770762850644108,1261.6293624008906,16329.622003261755
1.3654618473895583,890.8055304080971,889.1249176750722,0.032137875080908325,0.0,0.17085390446514406,0.2269366224601884,0.04770388483908884,1261.0353986127607,16455.739163408187
1.4457831325301205,892.0100980750703,890.7307793318008,0.03493008031903259,0.0,0.1717167673757239,0.22607129082073654,0.047699981193010096,1260.4294691574426,16580.68188983815
1.5261044176706826,893.040394724974,892.0771913088412,0.0377751982308989,0.0,0.17259592809730778,0.22518957029907502,0.047695933553337455,1259.812018829212,16704.433713468825
1.606425702811245,893.9343968454751,893.2204946682559,0.04067167695143872,0.0,0.17349091706549252,0.22429193868116715,0.04769175491946948,1259.1833903420095,16826.988247477846
1.6867469879518073,894.7219503887474,894.2049327433278,0.04361833627320048,0.0,0.17440137776908812,0.22337875908880586,0.04768745574353287,1258.5438446439853,16948.346696152046
1.7670682730923695,895.4265201188766,895.0652618638331,0.046614293284346874,0.0,0.1753270440463064,0.22245030294236356,0.04768304433987147,1257.8935772223517,17068.51593458046
1.8473895582329316,896.0665594674722,895.8287934351246,0.04965890280502642,0.0,0.17626772193106433,0.22150676834497637,0.047678527249522956,1257.2327311835281,17187.50703002371
1.927710843373494,896.6565846171101,896.5169934865069,0.052751709677019254,0.0,0.17722327513169545,0.22054829480279112,0.0476739095548257,1256.561407742764,17305.33410502776
2.0080321285140563,897.208017548558,897.1467369390234,0.0558924105439561,0.0,0.17819361341037604,0.21957497501374523,0.047669195145389164,1255.879674634817,17422.013464916956
2.0883534136546187,897.7298483016043,897.7312918604398,0.059080823229508556,0.0,0.1791786832800164,0.21858686431079957,0.04766438693965565,1255.1875728572647,17537.562929804808
2.1686746987951806,898.2291556684467,898.2810922095639,0.06231686219603543,0.0,0.18017846055276962,0.2175839882289133,0.0476594870674969,1254.485122077592,17652.001324768353
2.248995983935743,898.7115171201058,898.8043446508904,0.0656005188660808,0.0,0.1811929443675163,0.21656634857198245,0.0476544970195096,1253.7723249704418,17765.348092317796
2.3293172690763053,899.1813323936444,899.3075049277527,0.06893184582977238,0.0,0.18222215239804765,0.2155339282814082,0.04764941776836692,1253.0491706992436,17877.622999472085
2.4096385542168672,899.642080585445,899.7956513148479,0.07231094415162465,0.0,0.1832661170022658,0.21448669534902745,0.04764424986705306,1252.3156377149298,17988.845918172185
2.4899598393574296,900.0965277960764,900.2727761574712,0.0757379531383998,0.0,0.18432488211815276,0.21342460597134177,0.04763899352822943,1251.5716960121133,18099.036662929935
2.570281124497992,900.5469018333696,900.7420107596549,0.07921304203850756,0.0,0.18539850074556177,0.212347607108359,0.047633648688478324,1250.8173089592885,18208.214874013036
2.6506024096385543,900.995053577181,901.2057930036466,0.08273640320908322,0.0,0.18648703287296742,0.21125563859009092,0.04762821506086892,1250.0524348052436,18316.39993871942
2.7309236947791167,901.4426345022354,901.665979726872,0.08630824629372243,0.0,0.18759054371047443,0.2101486349116383,0.047622692179374516,1249.2770279624601,18423.610948361908
2.8112449799196786,901.8913431186361,902.1238954807021,0.08992879286785135,0.0,0.18870910206433758,0.20902652688433931,0.04761707943945459,1248.491040187281,18529.866696220986
2.891566265060241,902.3433416849211,902.580297482247,0.09359827078553032,0.0,0.18984277862053836,0.20788924337934284,0.04761137614097801,1247.6944218259248,18635.18573521963
2.9718875502008033,902.802033063679,903.0352472992013,0.09731690716316974,0.0,0.19099164381439626,0.20673671349206843,0.0476055815420885,1246.8871233612626,18739.58653900251
3.0522088353413652,903.2735001585918,903.4880341362758,0.1010849193486941,0.0,0.19215576508823312,0.20556886932872745,0.04759969492905763,1246.069097403994,18843.087852408975
3.1325301204819276,903.7688580748368,903.9379712034671,0.10490250798699252,0.0,0.19333520478295815,0.20438564814705903,0.04759371566738086,1245.2403002202236,18945.709367379888
3.21285140562249,904.3069029986316,904.3883971450896,0.10876987464133302,0.0,0.1945300254735147,0.20318698692248527,0.04758764304621839,1244.4006878356117,19047.47283787797
3.2931726907630523,904.9141434620825,904.85568681764,0.11268731812788907,0.0,0.19574031916983028,0.20197279263020285,0.04758147546113795,1243.5501947553623,19148.403441843355
3.3734939759036147,905.6184048389706,905.3753495752358,0.11665543970695898,0.0,0.19696626951484267,0.20074287894020162,0.04757520866414961,1242.6886886330649,19248.530547327307
3.4538152610441766,906.4385222149798,905.990597322886,0.12067532715224234,0.0,0.19820820752012136,0.1994969094309279,0.047568834102686586,1241.8159295558278,19347.886871235576
3.534136546184739,907.3791787259561,906.7313892305191,0.12474850473794272,0.0,0.1994665961494347,0.198234413056442,0.04756233899988099,1240.9315809032516,19446.506216634134
3.6144578313253013,908.4337993947047,907.6063155791145,0.12887663589502438,0.0,0.20074193952331054,0.19695487602098075,0.047555708060637754,1240.0352745816656,19544.42115999832
3.694779116465863,909.590291391402,908.608426016738,0.13306109258151178,0.0,0.20203465086874933,0.19565787499823595,0.04754892531976151,1239.1267051580326,19641.661670475223
3.7751004016064256,910.835304796154,909.7236978420059,0.1373023285489429,0.0,0.2033448590052675,0.1943432713657188,0.04754197528089311,1238.2057660100097,19738.254670724124
3.855421686746988,912.1562368966539,910.9365155274006,0.1415986392623997,0.0,0.2046720239306181,0.19301159591346423,0.04753484338199362,1237.2728177363379,19834.224138346857
3.9357429718875503,913.5415379334139,912.2319752231621,0.14594327192779358,0.0,0.20601404011437785,0.19166494561045208,0.04752751609023198,1236.329313136605,19929.59138582872
4.016064257028113,914.9796491153969,913.5959668679652,0.15031758352145938,0.0,0.2073651133436109,0.19030910675010076,0.0475199808880246,1235.3792767112404,20024.375264154136
4.096385542168675,916.4562505729702,915.0134189151127,0.15467599955082245,0.0,0.20871109327771675,0.1889582224521638,0.04751222636276189,1234.4325572283328,20118.592051856842
4.176706827309237,917.9493276058301,916.4645957697088,0.15891972303637772,0.0,0.2100213151526753,0.18764295123008612,0.04750424263619108,1233.510513129012,20212.254721082703
4.257028112449799,919.424421320095,917.9208689243209,0.16287660737841506,0.0,0.21124235420653376,0.1864167131945146,0.04749602235875436,1232.650365364479,20305.37137410312
4.337349397590361,920.8395245441964,919.3462572300552,0.16634757043807594,0.0,0.21231242854513296,0.1853412880401199,0.04748756205721388,1231.8951615547421,20397.94359821693
4.417670682730924,922.1636127231783,920.7091451988806,0.16922948712075483,0.0,0.21319953451321286,0.1844486800522003,0.04747886273144305,1231.2672020239304,20489.966868645122
4.497991967871486,923.388289034083,921.9926434215273,0.171566285573877,0.0,0.21391730316322824,0.18372526101039552,0.04746992886211456,1230.7569902138512,20581.433671145212
4.578313253012048,924.5209139059863,923.1934729792742,0.1734755262745983,0.0,0.21450221688017737,0.18313455246343746,0.04746076667088912,1230.3391082671365,20672.336789990393
4.658634538152611,925.574115462306,924.3160216610272,0.1750729284427524,0.0,0.21499018816737706,0.18264064609211575,0.047451382774704974,1229.988536697047,20762.670889340923
4.738955823293173,926.5606186292368,925.3680110951339,0.17644708352565194,0.0,0.21540871200616088,0.1822160508798241,0.047441783443276014,1229.686121935932,20852.43279853395
4.8192771084337345,927.4917547359928,926.3582416926648,0.1776606536595474,0.0,0.21577723713757518,0.18184132160651317,0.0474319742445572,1229.4183169852859,20941.621312001636
4.899598393574297,928.3773226903332,927.2954972567629,0.17875769263668065,0.0,0.21610933226146514,0.1815028925636904,0.047422065183397366,1229.1755982553243,21030.236890340653
4.979919678714859,929.2258240758608,928.1880909957165,0.1797700344964053,0.0,0.2164145598434979,0.18119120379288875,0.0474123793778415,1228.95108413554,21118.281393518682
5.0602409638554215,930.0443931264965,929.0436049423361,0.18071992168413253,0.0,0.2166998214326005,0.1808993557469421,0.047402923128569814,1228.7399666631832,21205.757831470866
5.140562248995984,930.8390741596303,929.8687499681596,0.18162380074417103,0.0,0.21697023974334767,0.18062222719197912,0.047393681618194614,1228.5386907291308,21292.67014167
5.220883534136546,931.6149985753353,930.6693892131126,0.18249419879985382,0.0,0.2172297163173841,0.18035591758993763,0.04738464365091911,1228.3445483459832,21379.02301082143
5.301204819277109,932.3765284206835,931.4506041942873,0.18334090100776723,0.0,0.21748129744997047,0.18009738121844476,0.047375801225234285,1228.1554240756748,21464.82172655475
5.381526104417671,933.1273794242313,932.2167781960162,0.18417173577903911,0.0,0.21772741835776663,0.1798441830477738,0.0473671491509496,1227.9696252720742,21550.07205440488
5.461847389558233,933.870725981928,932.9716837303397,0.18499310819796716,0.0,0.217970069155069,0.17959433280582762,0.04735868471325712,1227.7857667703308,21634.780136135694
5.542168674698795,934.6092903332843,933.7185668291158,0.18581036920542782,0.0,0.21821090980921723,0.17934617005959366,0.047350407382772214,1227.602691086665,21718.95240599924
5.622489959839357,935.3454179529202,934.4602244961895,0.18662807571285797,0.0,0.21845135119557046,0.17909828319243026,0.04734231856839049,1227.4194121993376,21802.595522000734
5.7028112449799195,936.0811410004806,935.1990737606025,0.18745017694716087,0.0,0.21869261321028,0.17884945131906876,0.04733442140876499,1227.235075277548,21885.716309664316
5.783132530120482,936.8182314986601,935.9372119925883,0.18828015002043866,0.0,0.2189357670812931,0.178598601998197,0.047326720597863754,1227.0489273863254,21968.32171617198
5.863453815261044,937.5582457451231,936.6764688304582,0.18912109999132748,0.0,0.2191817666205471,0.17834478000005938,0.04731922224008845,1226.8602958664592,22050.41877307697
5.943775100401607,938.3025612965628,937.4184504154056,0.18997583473695676,0.0,0.21943147162483917,0.1780871239220128,0.04731193373070769,1226.6685721584627,22132.014566083475
6.024096385542169,939.0524077014346,938.1645767819421,0.19084692173646886,0.0,0.21968566563388123,0.17782484844394703,0.04730486365774329,1226.4731995354155,22213.116210634995
6.1044176706827304,939.808892004897,938.9161132852821,0.19173673173506742,0.0,0.2199450695919938,0.17755723067750712,0.04729802172187744,1226.273663670546,22293.7308322682
6.184738955823293,940.5730199079566,939.6741969143611,0.19264747281948838,0.0,0.22021035251311769,0.1772835995097925,0.04729141867138047,1226.0694852763293,22373.865550871713
6.265060240963855,941.3457133344774,940.4398582718683,0.1935812174481193,0.0,0.22048213994181917,0.17700332714916803,0.04728506624946855,1225.8602142654338,22453.52746814295
6.3453815261044175,942.1278250447282,941.2140399195665,0.1945399242859517,0.0,0.2207610207874212,0.17671582229632585,0.04727897715187366,1225.645425033659,22532.723657665087
6.42570281124498,942.920150833074,941.997611700116,0.1955254562029091,0.0,0.22104755295538622,0.1764205245166995,0.04727316499274029,1225.424712571297,22611.461157133235
6.506024096385542,943.7234397584851,942.7913835615299,0.1965395954332842,0.0,0.22134226808772353,0.17611689950265155,0.04726764427725154,1225.1976891873337,22689.746962347745
6.586345381526105,944.5384027799245,943.5961163314131,0.19758405663089668,0.0,0.22164567564220247,0.17580443499581044,0.04726243037963369,1224.9639816877732,22767.588022665055
6.666666666666667,945.3657201023346,944.4125308164814,0.19866049835472765,0.0,0.22195826647784475,0.17548263720221383,0.0472575395253956,1224.7232288925645,22844.991237656195
6.746987951807229,946.2060474824575,945.241315539404,0.19977053337010328,0.0,0.22228051606747584,0.17515102757958279,0.04725298877683029,1224.475079407952,22921.96345477099
6.827309236947791,947.060021695701,946.0831333696358,0.20091573803579074,0.0,0.2226128874223153,0.174809139911827,0.047248796020945526,1224.2191895958576,22998.511467844964
6.907630522088353,947.9282653250879,946.9386272572973,0.2020976609619703,0.0,0.22295583378692035,0.17445651761253297,0.04724497995910185,1223.955221700353,23074.642016316888
6.9879518072289155,948.811390999592,947.8084252385883,0.2033178310580399,0.0,0.2233098011421806,0.17409271121978379,0.047241560097722644,1223.682842105541,23150.36178504956
7.068273092369478,949.710005181898,948.6931448473978,0.2045777650438845,0.0,0.22367523053989088,0.1737172760588193,0.04723855673950788,1223.4017197089574,23225.67740466593
7.14859437751004,950.6247115832751,949.5933970396944,0.20587897446494613,0.0,0.2240525602820192,0.17332977005944541,0.04723599097463146,1223.1115244017865,23300.595452328016
7.228915662650603,951.5561142653662,950.5097897142734,0.2072229722285928,0.0,0.22444222795063534,0.1729297517222431,0.047233884671436695,1222.8119256521295,23375.122452897787
7.309236947791165,952.5048204752259,951.4429308953268,0.2086112786691056,0.0,0.2248446722912673,0.17251677823081943,0.04723226046616735,1222.5025911897435,23449.264880429095
7.389558232931726,953.4714432491264,952.3934316276853,0.2100454271406744,0.0,0.22526033494995704,0.17209040370983317,0.047231141751286544,1222.183185792395,23523.02915994648
7.469879518072289,954.4566038129362,953.3619086245333,0.21152696913769464,0.0,0.2256896620642447,0.17165017762856666,0.047230552661937764,1221.8533701739707,23596.421669473388
7.550200803212851,955.4609338012991,954.3489866989547,0.21305747894486518,0.0,0.22613310570929085,0.17119564334882834,0.04723051806010638,1221.5127999738122,23669.44874227657
7.6305220883534135,956.4850773137917,955.3553010044768,0.2146385578223652,0.0,0.22659112520119504,0.17072633681512173,0.04723106351604108,1221.1611248461195,23742.116669297357
7.710843373493976,957.5296928238631,956.3814991054484,0.21627183773878564,0.0,0.22706418826187127,0.17024178538270843,0.04723221528648482,1220.7979876466768,23814.431701744154
7.791164658634538,958.595454954395,957.4282428948228,0.21795898466785468,0.0,0.22755277205088137,0.16974150677815075,0.047234000289259885,1220.423023713418,23886.400053823338
7.871485943775101,959.6830561329238,958.4962103749428,0.21970170147131546,0.0,0.22805736407159036,0.16922500818495462,0.04723644607374452,1220.0358602359902,23958.027905588468
7.951807228915663,960.7932084124799,959.5860974815113,0.22150173221097566,0.0,0.22857846352433941,0.16869178488159323,0.04723958078676665,1219.6361153157472,24029.321405896353
8.032128514056225,961.926631959487,960.6986113590386,0.22336078158054287,0.0,0.22911655630743566,0.16814134523152616,0.04724343313388993,1219.2234153800932,24100.286674881594
8.112449799196787,963.0840920617458,961.8344926433197,0.22528076015481052,0.0,0.22967219119407692,0.1675731344964265,0.04724803233324548,1218.7973421413371,24170.929807077908
8.19277108433735,964.26637033232,962.9945023390637,0.22726355451561714,0.0,0.23024590847723195,0.16698660617902836,0.04725340806462212,1218.3574822941002,24241.256876390707
8.273092369477911,965.474269565828,964.1794224953348,0.22931107597665704,0.0,0.23083825512949,0.1663812068525727,0.04725959041451198,1217.9034169698732,24311.273938086586
8.353413654618475,966.7086183229906,965.3900594357699,0.2314252847525566,0.0,0.231449792345201,0.16575636860658757,0.0472666098115657,1217.434716500321,24380.987031987013
8.433734939759036,967.9702721256947,966.6272450838142,0.2336081901716225,0.0,0.23208109564938587,0.1651115089250611,0.04727449695465757,1216.9509403601812,24450.402185755134
8.514056224899598,969.2601145880003,967.8918381875616,0.2358618507940813,0.0,0.23273275498320975,0.16444603058721094,0.0472832827331062,1216.4516371298841,24519.525418218363
8.594377510040161,970.5790585008837,969.184725470047,0.23818837442404792,0.0,0.23340537476277015,0.1637593215940542,0.04729299813855045,1215.9363444803885,24588.362742719655
8.674698795180722,971.9280468843305,970.506822724817,0.24058991800322083,0.0,0.234099573907839,0.16305075512408942,0.047303674168002637,1215.4045891827957,24656.920170492573
8.755020080321286,973.3080540171296,971.8590758719253,0.24306868737395435,0.0,0.23481598583704777,0.16231968952154452,0.047315341717623964,1214.855887145359,24725.203714056843
8.835341365461847,974.7200864521524,973.2424619858535,0.2456269368988845,0.0,0.23555525842581546,0.16156546832082713,0.0473280314667927,1214.2897434806096,24793.219390632214
8.91566265060241,976.1651840228583,974.6579903040208,0.248266968923661,0.0,0.23631805392308114,0.16078742031104576,0.04734177375206283,1213.7056526054446,24860.97322556926
8.995983935742972,977.6444208450599,976.1067032223049,0.2509911330684468,0.0,0.23710504882257535,0.1599848596447898,0.047356598430642986,1213.103098377212,24928.471255796583
9.076305220883533,979.1589063164233,977.5896772822011,0.2538018253324804,0.0,0.2379169336838867,0.15915708599582684,0.047372534733060453,1212.4815542691206,24995.71953328395
9.156626506024097,980.7097861144707,979.1080241527472,0.2567014869936705,0.0,0.23875441289779786,0.1583033847711516,0.047389611104715255,1211.840483588786,25062.72412852166
9.236947791164658,982.2982431915408,980.6628916089782,0.2596926032808595,0.0,0.23961820438895254,0.1574230273842209,0.04740785503607103,1211.1793397446709,25129.49113401586
9.317269076305221,983.9254987607067,982.2554645067858,0.26277770178728865,0.0,0.24050903924601566,0.1565152715991074,0.04742729288129027,1210.4975665671268,25196.02666779952
9.397590361445783,985.5928132589486,983.8869657522616,0.26595935057607656,0.0,0.24142766126389523,0.15557936196088146,0.047447949665171935,1209.7945986945706,25262.336876957725
9.477911646586346,987.301487256527,985.5586572598288,0.2692401558888256,0.0,0.2423748263701752,0.15461453033994235,0.04746984887831291,1209.0698620439107,25328.427941163893
9.558232931726907,989.0528622433637,987.2718408865079,0.27262275928086965,0.0,0.2433513018805818,0.15361999664533837,0.04749301226050187,1208.3227744032629,25394.306076218476
9.638554216867469,990.8483211370816,989.0278593161503,0.27610983380830456,0.0,0.24435786546653185,0.1525949698238792,0.04751745957246208,1207.5527462278922,25459.977537570987
9.718875502008032,992.6892881576347,990.82809684001,0.27970407843255957,0.0,0.24539530357487616,0.15153864940477427,0.04754320835623305,1206.7591818196463,25525.448623781405
9.799196787148594,994.5772272410862,992.6739799240901,0.2834082087228445,0.0,0.24646440870233605,0.15045022818714948,0.0475702736848043,1205.9414813048645,25590.725679820564
9.879518072289157,996.5136370247593,994.5669773401773,0.2872249393193633,0.0,0.2475659741130838,0.14932889748185854,0.047598667902309016,1205.0990443917462,25655.815099976095
9.959839357429718,998.5000376261867,996.5085994104155,0.29115694717822227,0.0,0.24870078258444248,0.14817385832254354,0.04762840035772664,1204.2312782812476,25720.72332981125
10.040160642570282,1000.5379373732562,998.500395472519,0.29520678844138815,0.0,0.24986958073421614,0.1469843470924973,0.0476594771391407,1203.337615603909,25785.45686584367
10.120481927710843,1002.6287495344327,1000.5439478311741,0.2993767003674394,0.0,0.25107301760409534,0.14575969689324755,0.04769190082618843,1202.4175572092697,25850.022249659483
10.200803212851406,1004.7735819371438,1002.640858786221,0.3036681120882968,0.0,0.25231149268263203,0.14449948947235292,0.047725670306297506,1201.4707779177422,25914.426048210604
10.281124497991968,1006.9726986360497,1004.7927225966038,0.3080804060064272,0.0,0.25358477084513237,0.14320394023543037,0.04776078077482552,1200.4973943150321,25978.674799204728
10.36144578313253,1009.2241097805106,1007.0012493178648,0.31260774590686863,0.0,0.2548909958796012,0.14187488467223627,0.04779722425420748,1199.498650600285,26042.77486698681
10.441767068273093,1011.5195500724977,1009.2682126504606,0.31723107355432156,0.0,0.25622420040718474,0.1405182683037394,0.04783499169783486,1198.47864912797,26106.732048738326
10.522088353413654,1013.8363197945829,1011.5914066237938,0.321899347530569,0.0,0.2575684708978215,0.1391499820507122,0.04787407738657443,1197.4484076547642,26170.550588544076
10.602409638554217,1016.1226948762784,1013.9565268497735,0.3264955538721779,0.0,0.2588873766244068,0.13780643491583555,0.04791448837400636,1196.4332106151087,26234.231096623225
10.682730923694779,1018.2872189005748,1016.307170505407,0.3308149629455758,0.0,0.26011721331801707,0.13655131655126182,0.047956255621297364,1195.4773162362933,26297.76704830584
10.763052208835342,1020.2294906176188,1018.520354314051,0.3346420607558614,1.8910810176320587e-05,0.2611910067449806,0.1354514963852008,0.04799943662048424,1194.6269777090936,26361.142038736496
10.843373493975903,1021.906451207766,1020.4760142547186,0.33790304050277215,8.924069471701823e-05,0.2620859609576778,0.1345296186947494,0.04804408475216886,1193.89757869849,26424.33241669728
10.923694779116467,1023.3454023803664,1022.1454701626086,0.3406820327026363,0.00020597267112782273,0.2628283599848865,0.13375949280091204,0.04809021252458574,1193.2710764680573,26487.31436590216
11.004016064257028,1024.6038516137628,1023.5725591938454,0.3431135847089424,0.00036313125279178375,0.26346017269473315,0.13309924881644983,0.04813782080871383,1192.7185441197316,26550.068978759045
11.08433734939759,1025.7372700191386,1024.8209054360946,0.3453128861558896,0.0005560570917297935,0.2640173231248984,0.13251304158105315,0.04818691332814363,1192.2152052327697,26612.583321936814
11.164658634538153,1026.788853953105,1025.94694097706,0.34736265848241327,0.0007815837726603202,0.2645256033608148,0.1319751348127595,0.04823750206512834,1191.743263890341,26674.84948321931
11.244979919678714,1027.7895905827872,1026.9935938753026,0.34931960723742755,0.0010378066676719419,0.2650026832990207,0.1314678949787947,0.04828960728924102,1191.2905157491027,26736.86324310131
11.325301204819278,1028.760904421361,1027.9914939180107,0.3512225733231653,0.0013237880665812368,0.2654606527039982,0.13097925397950755,0.04834325577675857,1190.8485935583544,26798.622946125884
11.405622489959839,1029.7173055918674,1028.9617933351965,0.3530985391685007,0.001639304658639365,0.26590789606064646,0.13050083838207172,0.0483984788432402,1190.4116753812655,26860.128663414907
11.485943775100402,1030.6684703648764,1029.918792166703,0.3549665797454755,0.001984654710400663,0.2663503269627971,0.13002673815335175,0.04845531071072989,1189.9756355699337,26921.38160273674
11.566265060240964,1031.6207557971966,1030.8719867554826,0.3568404112231218,0.002360517440426775,0.26679218493609774,0.12955271210553349,0.04851378729640102,1189.5374975340162,26982.383703068226
11.646586345381525,1032.5782693565873,1031.827569292431,0.35873005446774925,0.0027678527936600373,0.26723655577075806,0.1290756691703231,0.04857394536806007,1189.0950767889265,27043.137360227527
11.726907630522089,1033.5436131825707,1032.7894940293984,0.36064294510961914,0.003207831102461273,0.2676857188130847,0.12859332222653805,0.04863582198053151,1188.6467428469523,27103.64524366683
11.80722891566265,1034.5183969839647,1033.7602229744914,0.36258469196253035,0.003681784432808536,0.26814138422411504,0.12810395160938726,0.04869945411265166,1188.1912565475884,27163.910175911114
11.887550200803213,1035.5035884164881,1034.7412411097603,0.36455960607748145,0.004191173514927243,0.26860485843472404,0.1276062401738579,0.048764878440322575,1187.7276565566851,27223.93505464521
11.967871485943775,1036.4997500906152,1035.7334083021997,0.3665710758220697,0.0047375658063438,0.26907716139355803,0.12709915638991517,0.048832131197291344,1187.2551788568103,27283.722803554476
12.048192771084338,1037.5071979591896,1036.7371966437167,0.36862183577724206,0.005322621465115728,0.26955911057913545,0.12658187055139225,0.048901248089066846,1186.7731989845554,27343.27634232825
12.1285140562249,1038.5261055468013,1037.7528481157149,0.3707141607486602,0.0059480849109565465,0.27005138158585873,0.12605369432675215,0.04897226423611137,1186.281190311701,27402.598569249243
12.208835341365461,1039.5565711866411,1038.7804773679904,0.3728500060725972,0.006615780306276452,0.27055455192356703,0.12551403703892647,0.04904521413042049,1185.7786938363565,27461.692351895214
12.289156626506024,1040.5986602637697,1039.8201371082828,0.37503110897912323,0.007327609763948795,0.2710691326574317,0.12496237406626887,0.049120131595333315,1185.2652963244225,27520.56052294047
12.369477911646586,1041.6524308061669,1040.871858365894,0.3772590615500141,0.008085553432835648,0.27159559118880383,0.12439822407712064,0.049197049742408516,1184.7406145457269,27579.205879055018
12.449799196787149,1042.7179481787946,1041.9356741542763,0.3795353629216275,0.00889167086125363,0.27213436757126347,0.12382113271275295,0.04927600092190223,1184.2042839665598,27637.631181592868
12.53012048192771,1043.795292812501,1043.0116323990624,0.3818614563446953,0.009748103218291457,0.2726858861164425,0.12323066097023123,0.049357016665151784,1183.6559506961203,27695.83915823275
12.610441767068274,1044.8845636202734,1044.0998021188966,0.38423875523685685,0.010657076081834846,0.2732505635812493,0.1226263769976502,0.049440127618281246,1183.0952658000658,27753.83250505167
12.690763052208835,1045.9858788621036,1045.200275528261,0.3866686612760182,0.011620902593923628,0.273828814887307,0.12200785035359046,0.04952536346730901,1182.521881327071,27811.613888721608
12.771084337349398,1047.0993756046294,1046.313167815631,0.3891525767731677,0.012641986848685737,0.2744210570700617,0.12137464803502766,0.04961275285510565,1181.9354475676253,27869.18594865629
12.85140562248996,1048.2252085022599,1047.4386157214024,0.3916919129587803,0.01372282742312762,0.27502771196603176,0.12072633176625344,0.049702323290826994,1181.335611193824,27926.55129902101
12.931726907630521,1049.3635483444764,1048.5767756140867,0.394288095365859,0.014866020990934798,0.2756492080057875,0.12006245618181968,0.04979410105251988,1180.7220140256723,27983.71253057207
13.012048192771084,1050.5145806282198,1049.7278214802313,0.39694256715773407,0.01607426598007057,0.2762859813757727,0.1193825676407113,0.049888111083596455,1180.09429224131,28040.67221232258
13.092369477911646,1051.6785042943682,1050.8919430590379,0.399656791002059,0.017350366248324964,0.27693847673522104,0.11868620348564149,0.049984376883834905,1179.452075901594,28097.432893048805
13.17269076305221,1052.8555306923035,1052.0693442357576,0.4024322499117556,0.01869723475810865,0.2776071476181465,0.11797289161753448,0.05008292039553001,1178.7949886983424,28153.997102658755
13.25301204819277,1054.0458827916796,1053.260241736737,0.40527044734305345,0.020117897236113267,0.2782924566097675,0.11724215029583107,0.050183761885373816,1178.1226478637004,28210.36735344758
13.333333333333334,1055.2497946351946,1054.4648641277533,0.4081729067472805,0.021615495805145733,0.2789948753576625,0.1164934881042923,0.05028691982261174,1177.4346641982497,28266.546141263865
13.413654618473895,1056.4675110133646,1055.6834510954168,0.4111411707069024,0.023193292575430798,0.2797148844573999,0.11572640404252756,0.05039241075399402,1176.7306421897968,28322.535946608925
13.493975903614459,1057.6992873371528,1056.9162529815771,0.41417679974008176,0.024854673181526392,0.2804529732380316,0.11494038771784043,0.050500249176028064,1176.0101802047914,28378.339235688683
13.57429718875502,1058.9453896836344,1058.1635305380537,0.4172813708261368,0.026603150249075242,0.2812096394629295,0.11413491962191012,0.050610447405031046,1175.2728707412655,28433.95846143491
13.654618473895582,1060.2060949916226,1059.4255548703677,0.42045647568258915,0.02844236677317779,0.28198538895470626,0.1133094714835874,0.050723015445485284,1174.5183007369246,28489.39606451012
13.734939759036145,1061.4816913870138,1060.7026075425267,0.42370371880996516,0.030376099387365425,0.28278073514843505,0.11246350669363296,0.05083796085720812,1173.7460519292258,28544.65447430813
13.815261044176706,1062.7724786207668,1061.9949808190074,0.42702471531095004,0.032408261499083095,0.28359619857439466,0.1115964808002371,0.050955288621862466,1172.9557012663995,28599.736109960242
13.89558232931727,1064.0787686054891,1063.3029780242316,0.43042108848435007,0.03454290626430719,0.2844323062696344,0.11070784207611906,0.05107500100935201,1172.14682136978,28654.643381355734
13.975903614457831,1065.4008860392578,1064.626914003613,0.43389446719046876,0.03678422937045519,0.28528959111642704,0.10979703215925196,0.05119709744466499,1171.318981048694,28709.378690183567
14.056224899598394,1066.739169107566,1065.967115673501,0.43744648298222866,0.03913657159310527,0.28616859110494086,0.1088634867700243,0.051321574375751286,1170.4717458697392,28763.944431001633
14.136546184738956,1068.0939702560293,1067.3239226500116,0.4410787669951293,0.04160442108822796,0.2870698485170394,0.10790663650809505,0.05144842514303733,1169.6046787826074,28818.34299233874
14.216867469879517,1069.465657027806,1068.6976879488263,0.4447929465886122,0.044192415377645414,0.2879939090279211,0.1069259077324228,0.05157763985120284,1168.7173408048125,28872.576757833915
14.29718875502008,1070.8546129605925,1070.0887787496022,0.4485906417313582,0.046905342981261054,0.2889413207222626,0.10592072352802606,0.05170920524385875,1167.8092917677652,28926.648107417033
14.377510040160642,1072.2612385385878,1071.4975772197358,0.45247346112335535,0.0497481446452481,0.2899126330215885,0.10489050476299816,0.05184310458177955,1166.880091126652,28980.55941853435
14.457831325301205,1073.6859521950446,1072.924481392913,0.4564429980481443,0.05272591411084241,0.29090839551973974,0.1038346712391843,0.05197931752535171,1165.9292988365466,29034.313067421965
14.538152610441767,1075.129191360974,1074.3699060982378,0.4605008259494212,0.055843898363655095,0.2919291567235195,0.10275264293974781,0.052117820021903676,1164.9564762971,29087.91143042989
14.61847389558233,1076.5914135552696,1075.8342839357656,0.46464849372712635,0.05910749729861318,0.2929754626958728,0.10164384137661124,0.05225858419857974,1163.9611873680417,29141.356885399044
14.698795180722891,1078.073097511037,1077.3180662941106,0.4688875207491721,0.06252226273066144,0.2940478555992582,0.10050769104048647,0.0524015782614076,1162.942999457606,29194.651813092933
14.779116465863453,1079.574744331998,1078.8217244051552,0.4732193915765651,0.06609389667489628,0.29514687213730917,0.09934362095581237,0.05254676640122983,1161.9014846857724,29247.798598685484
14.859437751004016,1081.0968786721955,1080.3457504304763,0.47764555040077566,0.06982824881646037,0.2962730418932843,0.0981510663425419,0.0526941087070984,1160.8362211240296,29300.799633305814
14.939759036144578,1082.6400499310728,1081.890658573177,0.48216739519378293,0.07373131308416125,0.29742688556426944,0.0969294703863019,0.052843561087723034,1159.746794113176,29353.65731564036
15.02008032128514,1084.2048334547367,1083.4569862077824,0.4867862715730282,0.07780922323618941,0.298608913090653,0.09567828611792834,0.05299507520153277,1158.632797660364,29406.374053592095
15.100401606425702,1085.7918317328601,1085.045295019656,0.4915034663852922,0.08206824736105589,0.2998196216809769,0.09439697840283974,0.05314859839586138,1157.4938359163386,29458.952265995802
15.180722891566266,1087.4016755791595,1086.656172144095,0.4963202010154747,0.08651478119156171,0.3010594937329023,0.09308502604011754,0.053304073655714164,1156.3295247334886,29511.394384387808
15.261044176706827,1089.0350252817364,1088.290231293745,0.501237624428316,0.09115534012448562,0.3023289946517062,0.09174192397052408,0.05346143956251293,1155.1394933049862,29563.702854827457
15.34136546184739,1090.6925717077845,1089.948113861338,0.50625680595328,0.09599654983386287,0.30362857056845066,0.09036718559200632,0.05362063026314692,1153.9233858849339,29615.8801397669
15.421686746987952,1092.3750373452735,1091.630489982995,0.5113787278250757,0.10104513536132846,0.30495864596072825,0.08896034518051373,0.05378157544958145,1152.6808635890231,29667.928719964555
15.502008032128513,1094.083177262219,1093.3380595454244,0.5166042774946292,0.10630790856319138,0.3063196211796838,0.0875209604131986,0.05394420034919213,1151.4116062748064,29719.85109643651
15.582329317269076,1095.8177799620614,1095.0715531183225,0.5219342397277127,0.11179175379083887,0.3077118698878399,0.08604861499028166,0.05410842572590326,1150.1153145002233,29771.64979243889
15.662650602409638,1097.5796681115278,1096.8317327911805,0.5273692885108365,0.11750361167896765,0.3091357364131002,0.08454292135104936,0.05427416789211271,1148.7917115585658,29823.32735547277
15.742971887550201,1099.3696991151387,1098.6193928914813,0.5329099787864592,0.12345046091521758,0.31059153302517284,0.08300352347861463,0.054441338731285864,1147.4405455875756,29874.886359301774
15.823293172690763,1101.1887655083308,1100.4353605590181,0.5385567380419453,0.12963929786530268,0.31207953714152814,0.08143009978722485,0.05460984573099703,1146.0615917498556,29926.329405970846
15.903614457831326,1103.0377951389469,1102.2804961487714,0.5443098577790796,0.13607711392999797,0.3135999884708841,0.07982236608504055,0.05477959202609027,1144.6546544812522,29977.659127813193
15.983935742971887,1104.9176511473997,1104.1554458565456,0.5501687128545439,0.14277213595543176,0.31515286095609557,0.07818030262864983,0.05495048234607022,1143.2197184530564,30028.891978882897
16.06425702811245,1106.829102284708,1106.0602993573345,0.5561295675122184,0.1497372202517921,0.31673721945486283,0.07650479512962603,0.055122441398377096,1141.757374526583,30080.0957953728
16.14457831325301,1108.773617899761,1107.996546877212,0.5621916337720577,0.15697986617324874,0.3183529844930925,0.0747958788460119,0.05529536849441999,1140.2676540611124,30131.28097279915
16.224899598393574,1110.7526671435087,1109.9657232172922,0.568354414351051,0.1645067584672582,0.3200001606420049,0.07305350539174117,0.0554691559978976,1138.7505371363395,30182.44978692763
16.305220883534137,1112.7676683191892,1111.969275345084,0.5746172429210052,0.1723244792015643,0.3216787023789977,0.07127767644181507,0.05564369270924954,1137.206041845312,30233.604599405233
16.3855421686747,1114.8200098317486,1114.0085937482556,0.5809792775446171,0.18043946325051197,0.32338851182897693,0.0694684462708283,0.05581886391789853,1135.6342265650778,30284.74785416271
16.46586345381526,1116.9110646099748,1116.0850347040553,0.5874394941231126,0.1888579529184116,0.325129436460691,0.0676259243333749,0.055994551465740755,1134.0351922335562,30335.88207516219
16.546184738955823,1119.0421995464985,1118.1999356959138,0.593996679925772,0.19758595113792174,0.32690126676927395,0.06575027786177995,0.056170633818597174,1132.4090846307795,30387.009865058924
16.626506024096386,1121.214781083254,1120.354625611158,0.6006494272603147,0.20662917282969928,0.32870373397088376,0.06384173446044113,0.056346986142916264,1130.7560966617846,30438.133904448783
16.70682730923695,1123.4301777620901,1122.5504309126688,0.6073961273323235,0.2159929941282952,0.3305365077307784,0.061900584679476955,0.05652348038540567,1129.0764706381638,30489.256951449268
16.78714859437751,1125.6897603328275,1124.788678651183,0.614234964336949,0.22568239928636752,0.3323991939439146,0.05992718455174531,0.056699985353609136,1127.3705005541121,30540.38184141544
16.867469879518072,1127.9948998438194,1127.070696944421,0.6211639098210164,0.23570192516332236,0.33429133258521493,0.05792195807852038,0.056876366795673795,1125.6385343520133,30591.51148663181
16.947791164658636,1130.3469640176152,1129.3978133725211,0.6281807173498527,0.2460556032911566,0.3362123956454222,0.05588539964977798,0.0570524874777349,1123.8809761717337,30642.648875849656
17.028112449799195,1132.7473121250987,1131.7713516098443,0.6352829175102217,0.25674689959268376,0.33816178516773326,0.05381807638528915,0.05722820725749663,1122.098288576904,30693.797073559566
17.10843373493976,1135.1972885069774,1134.1926265189545,0.6424678132783936,0.2677786519072866,0.3401388314000602,0.051720630382673397,0.057403383152717175,1120.2909947505188,30744.959218903205
17.188755020080322,1137.6982148453899,1136.6629378644998,0.6497324757804491,0.27915300555801037,0.3421427910777266,0.04959378085826784,0.05757786940342556,1118.4596806512534,30796.13852413876
17.269076305220885,1140.251381255953,1139.183562756073,0.6570737404703484,0.29087134727158054,0.34417284585162516,0.04743832616616781,0.05775151752681076,1116.6049971208965,30847.338272581608
17.349397590361445,1142.8580362482326,1141.7557468949901,0.6644882037499893,0.30293423783948153,0.34622810087728734,0.04525514568012828,0.05792417636383518,1114.7276619323534,30898.56181594676
17.429718875502008,1145.5193755876921,1144.3806946764514,0.6719722200544608,0.3153413439827499,0.3483075835809472,0.043045201522202044,0.058095692116736944,1112.8284617666823,30949.812571023445
17.51004016064257,1148.2365300825882,1147.0595581829887,0.6795218994249068,0.32809136995416954,0.3504102426194555,0.04080954012106819,0.0582659083766986,1110.9082541067187,31001.09401561467
17.59036144578313,1151.0105523134348,1149.7934250951937,0.6871331055908942,0.3411819894773193,0.3525349470518272,0.038549293581994715,0.058434666141076015,1108.96796903397,31052.409683676797
17.670682730923694,1153.8424023193006,1152.58330553982,0.6948014545838724,0.35460977868015603,0.35468048574121447,0.03626568084933691,0.05860180381969783,1107.0086109147046,31103.763159595663
17.751004016064257,1156.7329322533296,1155.4301178920725,0.7025223139032485,0.3683701507291462,0.3568455670071614,0.033960008641435765,0.05876715722986482,1105.0312599605384,31155.158071537193
17.83132530120482,1159.6828700187432,1158.3346735472217,0.7102908022567669,0.38245729290589575,0.3590288185490438,0.03163367213681468,0.05893055957979924,1103.03707364836,31206.59808381176
17.91164658634538,1162.6928018956446,1161.2976606757088,0.7181017898972011,0.3968641068892999,0.36122878766253574,0.029288155389758673,0.0590918414404169,1101.0272879841862,31258.08688819246
17.991967871485944,1165.7631541678627,1164.319626975073,0.7259498995778633,0.41158215301042417,0.3634439417716799,0.026925031452778213,0.059250830705423446,1099.0032185955124,31309.628194128632
18.072289156626507,1168.8941737578016,1167.4009614308789,0.7338295081499961,0.4266015992329336,0.36567266929951525,0.02454596218322415,0.05940735253987174,1096.9662616369235,31361.225717796744
18.152610441767067,1172.0859078759825,1170.5418750971999,0.7417347488257131,0.4419111755780933,0.36791328090009867,0.022152697711537838,0.05956122931746885,1094.917894494149,31412.88316993146
18.23293172690763,1175.338182691224,1173.7423809052166,0.749659514130624,0.45749813465977585,0.3701640110738953,0.019747075549454495,0.059712280547091885,1092.8596762723778,31464.604242380603
18.313253012048193,1178.6505810276783,1177.002272505852,0.7575974595702396,0.4733482189202211,0.372423020186552,0.0173310193182265,0.05986032278917363,1090.7932480554996,31516.392593327786
18.393574297188756,1182.022419103154,1180.321102147251,0.7655420080362266,0.4894456350815798,0.3746883969062408,0.014906537080221835,0.06000516956298282,1088.7203329222757,31568.251831127956
18.473895582329316,1185.4527224076426,1183.6981574148572,0.773486354975048,0.5057730362146645,0.37695816099660595,0.012475719307208413,0.06014663124881596,1086.6427356839702,31620.18549670302
18.55421686746988,1188.9402031980287,1187.1324312697402,0.7814234743022048,0.5223115116649271,0.37923026414144667,0.010040737933176497,0.06028451507324627,1084.5623416044743,31672.197044472356
18.634538152610443,1192.4833184833747,1190.6224027631208,0.7893461238192554,0.5390405832067539,0.38150251307456473,0.007603893789786029,0.060418628002374374,1082.4810904155397,31724.289822622693
18.714859437751002,1196.0829297640933,1194.1591981712659,0.797246372041302,0.5559372190200937,0.3837697029435498,0.005169460878503525,0.060548871981920285,1080.4002302105876,31776.46998735901
18.795180722891565,1199.8300475627539,1197.5260694152814,0.8051007853658355,0.5729449595403393,0.3859360070600198,0.00280004162699749,0.06067817066508497,1078.297611300891,31828.83734130382
18.87550200803213,1204.9169435653132,1199.6320811493395,0.8128740157690664,0.590009868985516,0.3872882562323058,0.0009426960098598225,0.06083292237004224,1075.9577425544744,31881.468642286993
18.955823293172692,1214.4496973439668,1201.8672036154487,0.8205026626036133,0.6072477063094315,0.38707094649050855,7.1160536007299e-05,0.06104151490719851,1073.157733137426,31934.517784222833
19.03614457831325,1231.2394229918477,1209.314640576348,0.8279311723164546,0.6252182645779129,0.38558257330248197,-2.0223280162235084e-08,0.06129247678816722,1070.0013776664048,31988.35356398215
19.116465863453815,1254.563578311751,1225.4454883563972,0.835172717305134,0.644937388938938,0.3839816007803777,-4.481116570240069e-14,0.06154116077286543,1066.8337541735648,32043.45768881324
19.196787148594378,1282.7234056607313,1248.1978502100155,0.842260047117605,0.6673383365152045,0.3823632713747579,-6.054915188647975e-19,0.06178242397455595,1063.6553020322845,32100.231837215546
19.277108433734938,1314.5288518091202,1275.8090037220068,0.8492107857791875,0.69307162972347,0.38071385010623093,-4.523262449966832e-19,0.062014552014760964,1060.442211581126,32158.98366541259
19.3574297188755,1349.161512899212,1307.0788315415457,0.8560320093100827,0.7224923076439368,0.3790249650638185,-3.9710918900491514e-19,0.062234963441722926,1057.1816056646903,32219.956409478014
19.437751004016064,1386.0430937980636,1341.1906953635228,0.8627245132952486,0.7556189667413162,0.37729341198622546,-6.731835454499447e-20,0.06244026842577999,1053.8709224153629,32283.349014270523
19.518072289156628,1424.7351033152827,1377.5755598373498,0.8692856505869833,0.7920874467127423,0.3755213517703052,-1.562244753428233e-20,0.06262630046624122,1050.5179820754076,32349.32848813791
19.598393574297187,1464.863293050647,1415.8099910343635,0.8757111062213533,0.8311089008524359,0.3737166738749888,1.6948479669807705e-20,0.06278812479535865,1047.1413459103571,32418.036386908912
19.67871485943775,1506.0607182214064,1455.5402791463873,0.8819959508719336,0.8714285219417893,0.37189350743793687,-3.077908724956568e-20,0.06292002336258572,1043.770925830595,32489.590807474095
19.759036144578314,1547.9234170144373,1496.4262416196266,0.8881352343991515,0.9112701553682558,0.3700730192350759,-1.9393569011549866e-21,0.06301544510865607,1040.4491003089681,32564.08486153936
19.839357429718877,1589.9717460403251,1538.0993496811618,0.8941243024164748,0.9482325366864562,0.36828490964278765,6.196938258927373e-20,0.06306688490037685,1037.2330898660884,32641.582208022977
19.919678714859437,1631.6049590570249,1580.1319496176616,0.899958964466326,0.9790272004195563,0.3665710312136999,1.1973994411623306e-19,0.06306555725582466,1034.2011814886823,32722.109686248412
20.0,1671.9999999999998,1622.0357918717662,0.9056356512823532,0.9983852964657751,0.365,1.2793101908326337e-22,0.063,1031.478881460622,32805.645713303384
