z,T,t,fs,fl,x,y,w,rhob,p
0.0,636.6360988866402,505.0,0.0,0.0,0.1608294506993863,0.23714062519065393,0.04765687638635793,1268.0,14330.0
0.010005002501250625,645.2449890457573,518.2389617787107,2.6800273451435426e-05,0.0,0.1608377627839769,0.23713231310587723,0.04765687638606351,1267.9942047087072,14341.301478634354
0.02001000500250125,653.531275477532,530.9621100897008,5.772562270266116e-05,0.0,0.1608473542574169,0.23712272163200895,0.04765687638538602,1267.987517410813,14352.832596214072
0.030015007503751877,661.5099602720209,543.194964196003,9.296686969784403e-05,0.0,0.16085828430264335,0.23711179158586326,0.047656876383931866,1267.9798968427644,14364.585141861398
0.0400200100050025,669.1951279569929,554.9613465711935,0.00013268700936690332,0.0,0.1608706034717918,0.2370994724148593,0.047656876380996756,1267.9713077581507,14376.55115542877
0.05002501250625312,676.6000188386992,566.2835323765233,0.00017702261760404298,0.0,0.16088435412272262,0.23708572176038237,0.04765687637538706,1267.9617206231453,14388.722922255542
0.060030015007503754,683.7370950786177,577.182382404436,0.00022608553318576925,0.0,0.16089957094045026,0.23707050493619897,0.04765687636517477,1267.9511112526727,14401.092967603134
0.07003501750875438,690.6181003513091,587.6774616782827,0.0002799646941649304,0.0,0.1609162815064171,0.23705379435898064,0.04765687634737622,1267.9394604131298,14413.654050864052
0.080040020010005,697.2541138175889,597.7871455615772,0.00033872803897295605,0.0,0.16093450688776204,0.23703556895877917,0.04765687631754734,1267.9267534110702,14426.399159621795
0.09004502251125562,703.6555990521753,607.5287149523751,0.00040242440657445175,0.0,0.16095426222621945,0.23701581358981696,0.047656876269292305,1267.9129796820441,14439.321503623813
0.10005002501250625,709.8324484834337,616.9184419078571,0.00047108538914530175,0.0,0.160975557312218,0.23699451845602382,0.04765687619368648,1267.8981323896596,14452.414508717613
0.11005502751375687,715.7940238327513,625.9716668519762,0.0005447271056225233,0.0,0.16099839713436706,0.23697167856113446,0.04765687607861971,1267.8822080417085,14465.671810790185
0.12006003001500751,721.5491929807248,634.7028683579892,0.00062335187584076,0.0,0.16102278239805062,0.23694729318963692,0.04765687590807021,1267.8652061277514,14479.087249743074
0.13006503251625812,727.1063636352599,643.1257263621707,0.0007069497835040377,0.0,0.16104871000949414,0.2369213654222111,0.04765687566132381,1267.8471287807156,14492.654863528707
0.14007003501750875,732.4735141316586,651.2531795505028,0.0007955001225302938,0.0,0.16107617352362835,0.23689390168734856,0.04765687531215672,1267.8279804636852,14506.368882268363
0.15007503751875936,737.6582216557434,659.0974775629911,0.0008889727258428907,0.0,0.1611051635554805,0.23686491134943513,0.04765687482800243,1267.8077676821067,14520.223722467677
0.16008004002001,742.6676881467987,666.6702285768649,0.0009873291788624469,0.0,0.16113566815581112,0.23683440633259104,0.04765687416912527,1267.7864987209318,14534.213981342233
0.17008504252126064,747.5087641063186,673.9824427570637,0.0010905239220977084,0.0,0.16116767315238167,0.23680240077889975,0.04765687328782343,1267.7641834057522,14548.33443126363
0.18009004502251125,752.1879705214724,681.0445720163947,0.001198505248780164,0.0,0.16120116245871607,0.23676891073917578,0.047656872127684255,1267.7408328866647,14562.580014329376
0.19009504752376188,756.7115190771678,687.8665464541467,0.0013112162040314814,0.0,0.1612361183523883,0.23673395389425264,0.04765687062291317,1267.7164594434664,14576.945837064186
0.2001000500250125,761.0853308157548,694.4578078053972,0.0014285953925993766,0.0,0.16127252172503398,0.2366975493046057,0.04765686869775526,1267.691076310671,14591.427165256657
0.21010505252626313,765.3150533886776,700.8273401984886,0.0015505777023297016,0.0,0.16131035230632518,0.23665971718608128,0.047656866266026617,1267.6646975208089,14606.01941893247
0.22011005502751374,769.4060770275526,706.9836984815207,0.0016770949503994287,0.0,0.1613495888640976,0.23662047870955066,0.047656863230768724,1267.6373377644964,14620.71816746501
0.23011505752876438,773.3635493487885,712.9350343493077,0.0018080764590858746,0.0,0.16139020938274187,0.23657985582238478,0.047656859484036376,1267.609012265814,14635.519124823431
0.24012006003001501,777.1923890941039,718.6891204766158,0.0019434495675068088,0.0,0.1614321912218598,0.23653787108975294,0.047656854906825835,1267.5797366716085,14650.418144957446
0.25012506253126565,780.8972988988786,724.2533728410835,0.002083140085370988,0.0,0.16147551125706153,0.23649454755387048,0.047656849369146416,1267.549526953414,14665.411217317514
0.26013006503251623,784.482777171078,729.6348713995864,0.002227072694356013,0.0,0.16152014600464581,0.23644990860945442,0.047656842730235384,1267.5183993207745,14680.494462508716
0.27013506753376687,787.953129155308,734.8403792645435,0.0023751713022994664,0.0,0.16156607173176868,0.2364039778937791,0.04765683483891271,1267.4863701448498,14695.664128076116
0.2801400700350175,791.3124772493096,739.8763605114773,0.002527359354963444,0.0,0.16161326455357108,0.2363567791898575,0.047656825534069455,1267.453455891267,14710.916584419205
0.29014507253626814,794.5647706337344,744.7489967357262,0.0026835601097210094,0.0,0.16166170051860623,0.2363083363414009,0.04765681464528068,1267.4196730612755,14726.24832083279
0.3001500750375187,797.7137942702923,749.4642024643658,0.002843696875121574,0.0,0.16171135568378425,0.23625867317833363,0.047656801993532,1267.3850381403408,14741.65594167145
0.31015507753876936,800.7631773181707,754.0276395188179,0.003007693219924473,0.0,0.16176220617993603,0.23620781345175249,0.04765678739204657,1267.3495675534007,14757.13616263465
0.32016008004002,803.7164010132215,758.4447304130181,0.00317547315485237,0.0,0.1618142282689913,0.2361557807773253,0.04765677064719842,1267.3132776260602,14772.685807170174
0.33016508254127064,806.5768060532657,762.7206708685239,0.003346961289990103,0.0,0.16186739839366596,0.23610259858622626,0.04765675155949684,1267.2761845510984,14788.301802991158
0.3401700850425213,809.3475995266203,766.8604415164126,0.003522082970458793,0.0,0.16192169322045954,0.23604829008279543,0.04765672992462595,1267.2383043597006,14803.981178703878
0.35017508754377186,812.0318614162536,770.8688188470472,0.0037007643927523142,0.0,0.1619770896766896,0.23599287820818673,0.04765670553452346,1267.1996528968946,14819.721060544514
0.3601800900450225,814.6325507118158,774.7503854674763,0.0038829327038672552,0.0,0.16203356498220897,0.23593638560934674,0.047656678178482924,1267.1602458007192,14835.518669221039
0.37018509254627313,817.1525111581464,778.509539719394,0.004068516085139611,0.0,0.16209109667638752,0.23587883461273543,0.04765664764426405,1267.1200984847053,14851.371316857123
0.38019009504752377,819.5944766663818,782.1505047058052,0.004257443822503434,0.0,0.16214966264087607,0.2358202472022598,0.0476566137191968,1267.0792261232898,14867.276404034972
0.39019509754877435,821.9610764116027,785.6773367702989,0.004449646364707447,0.0,0.16220924111861784,0.23576064500094804,0.04765657619126572,1267.0376436398212,14883.231416934086
0.400200100050025,824.2548396389764,789.093933469017,0.0046450553708642815,0.0,0.16226981072952282,0.2357000492559404,0.0476565348501622,1266.9953656968569,14899.233924562956
0.4102051025512756,826.4782001985535,792.4040410719834,0.004843603748561693,0.0,0.16233135048317665,0.23563848082641828,0.04765648948829383,1266.9524066884746,14915.281576080812
0.42021010505252626,828.6335008272521,795.6112616273514,0.005045225683634635,0.0,0.16239383978891644,0.2355759601741333,0.04765643990174139,1266.90878073436,14931.37209820657
0.4302151075537769,830.7229971950817,798.719059619333,0.005249856662579851,0.0,0.1624572584635712,0.23551250735623355,0.04765638589115536,1266.8645016754544,14947.503292712172
0.4402201100550275,832.7488617313198,801.7307682480468,0.005457433488489586,0.0,0.16252158673713293,0.23544814202011735,0.047656327262585695,1266.8195830709615,14963.673033997677
0.4502251125562781,834.7131872451214,804.649595357222,0.00566789429128681,0.0,0.1625868052565968,0.2353828834000718,0.0476562638282397,1266.774038196552,14979.879266745396
0.46023011505752875,836.6179903539336,807.478629033616,0.005881178532960045,0.0,0.1626528950881835,0.23531675031548183,0.04765619540716452,1266.727880043607,14996.12000365052
0.4702351175587794,838.4652147317494,810.2208428996224,0.0060972270084264325,0.0,0.16271983771813744,0.23524976117041482,0.04765612182585199,1266.6811213193616,15012.393323226099
0.48024012006003003,840.256734189031,812.8791011199621,0.006315981842571852,0.0,0.16278761505226935,0.2351819339544102,0.047656042918765094,1266.633774447836,15028.697367679506
0.4902451225612806,841.994355595653,815.4561631423593,0.006537386483944717,0.0,0.16285620941439224,0.23511328624432712,0.04765595852878586,1266.5858515714435,15045.030340857385
0.5002501250625313,843.6798216552216,817.9546881872053,0.0067613856955715725,0.0,0.1629256035437962,0.23504383520710365,0.04765586850758611,1266.537364553181,15061.390506258022
0.5102551275637819,845.3148135403491,820.3772395029504,0.006987925543278398,0.0,0.16299578059188344,0.234973597603309,0.04765577271592329,1266.4883249793168,15077.776185108603
0.5202601300650325,846.9009533973841,822.7262884021128,0.007216953381865014,0.0,0.16306672411807394,0.234902589791379,0.047655671023863984,1266.4387441625022,15094.18575450505
0.5302651325662832,848.4398067284308,825.0042180915831,0.007448417839442838,0.0,0.1631384180850807,0.23483082773243905,0.047655563310938835,1266.3886331452443,15110.617645612429
0.5402701350675337,849.9328846579275,827.2133273098993,0.007682268800211754,0.0,0.16321084685364384,0.23475832699562654,0.04765544946623265,1266.3380027036799,15127.070341923923
0.5502751375687843,851.3816460905547,829.3558337832628,0.007918457385921117,0.0,0.16328399517680348,0.23468510276383733,0.04765532938841423,1266.2868633515995,15143.542377576401
0.560280140070035,852.787499766772,831.4338775112097,0.008156935936232195,0.0,0.16335784819378282,0.23461116983982602,0.04765520298571032,1266.2352253446809,15160.03233572072
0.5702851425712856,854.1518062218533,833.449523892096,0.008397657988174882,0.0,0.16343239142354535,0.23453654265260004,0.047655070175828755,1266.1830986848884,15176.538846944979
0.5802901450725363,855.4758796538927,835.4047666978342,0.008640578254869516,0.0,0.16350761075808354,0.23446123526405332,0.04765493088583543,1266.1304931250065,15193.060587748929
0.5902951475737869,856.7609897058894,837.3015309066701,0.008885652603664852,0.0,0.16358349245549048,0.23438526137579088,0.047654785051990084,1266.0774181732781,15209.596279067873
0.6003001500750375,858.0083631666772,839.1416754021827,0.009132838033825934,0.0,0.16366002313285996,0.23430863433610213,0.04765463261954565,1266.023883098118,15226.144684844403
0.6103051525762881,859.2191855951557,840.9269955461426,0.00938209265388973,0.0,0.1637371897590549,0.23423136714704496,0.04765447354251585,1265.9698969328822,15242.70461064641
0.6203101550775387,860.3946028718974,842.6592256322007,0.009633375658795016,0.0,0.16381497964738306,0.2341534724716066,0.04765430778341549,1265.915468480671,15259.27490232989
0.6303151575787894,861.5357226819497,844.340041226935,0.00988664730689206,0.0,0.16389338044821422,0.23407496264090727,0.04765413531297783,1265.8606063191464,15275.854444745233
0.64032016008004,862.643615936742,845.9710614105962,0.010141868925061257,0.0,0.16397238015029944,0.2339958496526905,0.04765395610985282,1265.805318799256,15292.442160484685
0.6503251625812906,863.7193434345298,847.5538868146826,0.010399207030395432,0.0,0.1640520303888668,0.23391608186301482,0.047653770160271225,1265.7495699057808,15309.037008770283
0.6603301650825413,864.7643038420824,849.0905928419143,0.010661860878084775,0.0,0.16413332340920628,0.23383466702167247,0.04765357745646785,1265.6926678275101,15325.637990690591
0.6703351675837919,865.7791312556316,850.5821655969226,0.010927164961896552,0.0,0.1642154325049276,0.233752431834117,0.047653377996975485,1265.6351889527039,15342.244144267595
0.6803401700850426,866.7646733857213,852.0298921616393,0.011194370343376971,0.0,0.16429812540062125,0.23366960858004032,0.04765317178858263,1265.5772952355364,15358.854531744366
0.6903451725862931,867.7218366172804,853.4351396155789,0.011463442987951456,0.0,0.16438139155408654,0.23358620780993564,0.047652958844421486,1265.518994042852,15375.468246933186
0.7003501750875437,868.6514979421087,854.7992301156022,0.011734350350473977,0.0,0.16446522089025892,0.23350223961089106,0.04765273918352622,1265.4602924226617,15392.084414684841
0.7103551775887944,869.5545059339411,856.1234424277947,0.012007060764722967,0.0,0.16454960361155638,0.23341771379602524,0.04765251283048818,1265.4011972359688,15408.702189892965
0.720360180090045,870.4316817540944,857.4090134947019,0.012281543421796767,0.0,0.16463453019087643,0.23333263991127476,0.047652279815114544,1265.341715161254,15425.320756530207
0.7303651825912957,871.283820116385,858.6571399371948,0.012557768349144224,0.0,0.1647199913647946,0.23324702724198268,0.04765204017209189,1265.2818526988249,15441.939326715388
0.7403701850925463,872.1116902132366,859.868979494162,0.01283570638992376,0.0,0.1648059781268706,0.23316088481938407,0.04765179394065615,1265.2216161750985,15458.55713981064
0.7503751875937968,872.9160366048295,861.0456524031003,0.013115329182706123,0.0,0.16489248172106769,0.23307422142698256,0.04765154116427011,1265.1610117468126,15475.173461547498
0.7603801900950475,873.6975800730315,862.1882427244882,0.013396609141533162,0.0,0.16497949363529052,0.23298704560681435,0.047651281890309545,1265.1000454051662,15491.787583181036
0.7703851925962981,874.4570184417396,863.2977996126291,0.013679519436343362,0.0,0.16506700559504447,0.23289936566559596,0.04765101616975853,1265.0387229798844,15508.39882067115
0.7803901950975487,875.1950273650583,864.3753385353359,0.013964033973776203,0.0,0.16515500955722204,0.23281118968075212,0.047650744056915065,1264.9770501432088,15525.00651389022
0.7903951975987994,875.9122610852149,865.4218424455278,0.014250127378346692,0.0,0.16524349770401306,0.23272252550632563,0.04765046560910692,1264.9150324138095,15541.610025855876
0.80040020010005,876.6093531613196,866.438262906587,0.014537774974003236,0.0,0.1653324624369437,0.23263338077876602,0.04765018088641863,1264.8526751606275,15558.20874198829
0.8104052026013007,877.2869171701661,867.4255211734556,0.014826952766075437,0.0,0.1654218963710462,0.23254376292259413,0.04764988995142961,1264.7899836066308,15574.80206939136
0.8204102051025512,877.9455473804348,868.3845092316814,0.01511763742360904,0.0,0.1655117923291591,0.23245367915594362,0.04764959286896362,1264.7269628324973,15591.389436156896
0.8304152076038018,878.5858194014777,869.3160907963345,0.01540980626208806,0.0,0.16560214333635725,0.23236313649597967,0.0476492897058497,1264.6636177802222,15607.970290691013
0.8404202101050525,879.2082908077991,870.2211022726185,0.015703437226542903,0.0,0.16569294261451217,0.23227214176419508,0.04764898053069451,1264.5999532566427,15624.544101062073
0.8504252126063031,879.8135017402944,871.1003536798879,0.015998508875042523,0.0,0.16578418357698113,0.23218070159158388,0.047648665413666046,1264.53597393689,15641.11035436943
0.8604302151075538,880.4019754852459,871.9546295407094,0.016295000362567848,0.0,0.16587585982342495,0.23208882242369455,0.04764834442628857,1264.4716843677647,15657.668556132337
0.8704352176088044,880.9742190320329,872.784689736503,0.016592891425262928,0.0,0.16596796513475226,0.23199651052556258,0.04764801764124855,1264.4070889710356,15674.21822969833
0.880440220110055,881.5307236104566,873.5912703312274,0.016892162365059814,0.0,0.16606049346818944,0.231903771986525,0.047647685132211445,1264.3421920466617,15690.758915670498
0.8904452226113057,882.0719652085426,874.3750843644974,0.01719279403467253,0.0,0.16615343895247464,0.23181061272491715,0.04764734697364907,1264.2769977759447,15707.290171353005
0.9004502251125562,882.5984050716326,875.136822615445,0.017494767822955178,0.0,0.16624679588317332,0.2317170384926544,0.047647003240677104,1264.2115102246062,15723.811570214262
0.9104552276138069,883.1104901835472,875.8771543385748,0.0177980656406188,0.0,0.1663405587181142,0.23162305487969972,0.047646654008902695,1264.14573334579,15740.322701367237
0.9204602301150575,883.6086537305483,876.596727972793,0.018102669906301338,0.0,0.16643472207294338,0.23152866731841967,0.04764629935428157,1264.079670982998,15756.823169066274
0.9304652326163081,884.0933155487322,877.2961718246187,0.018408563532987903,0.0,0.16652928071679485,0.23143388108782895,0.04764593935298454,1264.0133268729537,15773.312592220049
0.9404702351175588,884.5648825556873,877.9760947269054,0.018715729914768657,0.0,0.16662422956807407,0.2313387013177283,0.04764557408127272,1263.9467046483949,15789.790603919913
0.9504752376188094,885.0237491670624,878.6370866740965,0.019024152913927814,0.0,0.16671956369035157,0.23124313299273752,0.047645203615381604,1263.8798078408042,15806.256850983138
0.9604802401200601,885.47029769846,879.2797194346989,0.019333816848364455,0.0,0.1668152782883667,0.23114718095622333,0.04764482803141306,1263.812639883068,15822.710993510793
0.9704852426213106,885.9048987533225,879.904547142027,0.01964470647933526,0.0,0.16691136870413842,0.2310508499141256,0.047644447405235366,1263.7452041120741,15839.152704459668
0.9804902451225612,886.3279115973728,880.5121068641096,0.019956806999512418,0.0,0.1670078304131801,0.2309541444386838,0.04764406181239068,1263.6775037712418,15855.581669227824
0.9904952476238119,886.7396845201296,881.1029191535895,0.020270104021349995,0.0,0.16710465902081664,0.2308570689720661,0.047643671328009556,1263.6095420129907,15871.997585253288
1.0005002501250626,887.140555184006,881.6774885784179,0.020584583565752233,0.0,0.167201850258601,0.23075962782990284,0.0476432760267324,1263.541321901148,15888.400161625523
1.0105052526263132,887.5308509614657,882.236304234098,0.02090023205103702,0.0,0.1672993999808279,0.23066182520472744,0.04764287598263723,1263.4728464132963,15904.789118709194
1.0205102551275638,887.9108892606979,882.7798402382058,0.021217036282188028,0.0,0.1673973041611429,0.23056366516932553,0.047642471269173585,1263.4041184430603,15921.164187779934
1.0305152576288144,888.2809778402477,883.3085562078769,0.021534983440388806,0.0,0.1674955588892434,0.23046515167999565,0.04764206195910231,1263.3351408023368,15937.525110671624
1.040520260130065,888.6414151130197,883.8228977209211,0.02185406107283246,0.0,0.1675941603676704,0.23036628857972302,0.0476416481244406,1263.2659162234695,15953.871639434888
1.0505252626313157,888.9924904400553,884.3232967611917,0.022174257082800207,0.0,0.16769310490868805,0.23026707960126833,0.047641229836412446,1263.1964473613655,15970.20353600643
1.0605302651325663,889.3344844144669,884.810172148816,0.022495559720002684,0.0,0.16779238893124898,0.23016752837017435,0.047640807165403844,1263.1267367955597,15986.520571888834
1.070535267633817,889.667669135893,885.283929955856,0.02281795757117746,0.0,0.1678920089580433,0.23006763840769145,0.04764038018092245,1263.0567870322277,16002.822527840559
1.0805402701350675,889.992308475793,885.7449639079049,0.023141439550937965,0.0,0.16799196161262903,0.2299674131336243,0.047639948951561886,1262.986600506142,16019.109193575761
1.090545272636318,890.3086583339492,886.1936557721893,0.023465994892866486,0.0,0.16809224361664213,0.22986685586910183,0.047639513544969765,1262.916179582582,16035.380367473666
1.1005502751375686,890.6169668866046,886.6303757328458,0.02379161314084057,0.0,0.16819285178708224,0.22976596983927383,0.04763907402781969,1262.8455265591945,16051.63585629703
1.1105552776388194,890.917474826375,887.055482753595,0.024118284140593978,0.0,0.1682937830336741,0.22966475817593393,0.04763863046578681,1262.7746436678055,16067.875474919589
1.12056028014007,891.2104155942845,887.4693249283575,0.024445998031504004,0.0,0.1683950343563023,0.22956322392007153,0.04763818292352674,1262.703533076183,16084.09904606215
1.1305652826413206,891.4960156042139,887.8722398202633,0.02477474523859927,0.0,0.16849660284251722,0.22946137002435452,0.04763773146465744,1262.6321968897553,16100.30640003707
1.1405702851425712,891.7744944600375,888.2645547894814,0.02510451646478216,0.0,0.16859848566510982,0.2293591993555448,0.047637276151744234,1262.5606371532872,16116.497374500814
1.1505752876438218,892.0460651657061,888.6465873102742,0.02543530268326053,0.0,0.16870068007975395,0.22925671469684836,0.04763681704628736,1262.4888558525067,16132.671814214347
1.1605802901450726,892.3109343285251,889.0186452776612,0.02576709513018324,0.0,0.16880318342271416,0.229153918750201,0.04763635420871217,1262.4168549156934,16148.829570811142
1.1705852926463232,892.5693023558713,889.3810273040723,0.02609988529747422,0.0,0.16890599310861695,0.2290508141384925,0.0476358876983616,1262.3446362152245,16164.970502572529
1.1805902951475737,892.8213636455731,889.734023006339,0.026433664925859975,0.0,0.169009106628284,0.2289474034077299,0.0476354175734909,1262.2722015690777,16181.094474210136
1.1905952976488243,893.0673067701798,890.0779132833737,0.02676842599808541,0.0,0.1691125215466257,0.22884368902914198,0.047634943891264284,1262.1995527422987,16197.201356655269
1.200600300150075,893.3073146553296,890.4129705848602,0.027104160732313053,0.0,0.1692162355005931,0.22873967340122647,0.047634466707753585,1262.1266914484265,16213.291026854924
1.2106053026513257,893.5415647524216,890.7394591712762,0.02744086157570087,0.0,0.1693202461971867,0.22863535885174124,0.04763398607793852,1262.053619350882,16229.363367574282
1.2206103051525763,893.7702292057874,891.0576353655458,0.027778521198153924,0.0,0.1694245514115207,0.22853074763964132,0.047633502055708675,1261.980338064321,16245.418267205458
1.2306153076538269,893.9934750145399,891.367747796605,0.02811713248624584,0.0,0.16952914898494134,0.22842584195696297,0.04763301469386678,1261.9068491559508,16261.455619582317
1.2406203101550775,894.2114641892658,891.6700376351265,0.02845668853730606,0.0,0.1696340368231973,0.22832064393065582,0.04763252404413357,1261.8331541468096,16277.475323801182
1.250625312656328,894.4243539038386,891.9647388218369,0.028797182653664356,0.0,0.16973921289466054,0.22821515562436612,0.04763203015715366,1261.7592545130165,16293.477284047154
1.2606303151575788,894.6322966424171,892.2520782885244,0.029138608337052434,0.0,0.16984467522859673,0.2281093790401708,0.04763153308250274,1261.6851516869838,16309.461409425947
1.2706353176588294,894.8354403418039,892.5322761720066,0.029480959283158224,0.0,0.1699504219134835,0.22800331612026412,0.04763103286869569,1261.6108470586012,16325.42761380108
1.28064032016008,895.0339285293285,892.8055460213141,0.029824229376328025,0.0,0.170056451095376,0.22789696874859802,0.04763052956319563,1261.536341976386,16341.375815636215
1.2906453226613306,895.227900456412,893.0720949983263,0.03016841268441261,0.0,0.17016276097631752,0.22779033875247787,0.04763002321242396,1261.4616377486004,16357.305937842497
1.3006503251625812,895.4174912279524,893.3321240720763,0.03051350345375337,0.0,0.17026934981279412,0.22768342790411444,0.04762951386177094,1261.3867356443452,16373.217907630751
1.310655327663832,895.60283192767,893.5858282069404,0.03085949610430477,0.0,0.17037621591423238,0.22757623792213338,0.0476290015556072,1261.3116368946196,16389.111656368324
1.3206603301650826,895.7840497395492,893.8333965449146,0.03120638522488946,0.0,0.1704833576415386,0.22746877047304356,0.04762848633729574,1261.2363426933518,16404.987119440506
1.3306653326663331,895.961268065502,894.0750125821806,0.031554165568582475,0.0,0.1705907734056789,0.22736102717266532,0.047627968249204455,1261.160854198407,16420.844236116318
1.3406703351675837,896.1346066393808,894.310854340144,0.03190283204822094,0.0,0.17069846166629818,0.2272530095875192,0.04762744733271929,1261.0851725325635,16436.68294941858
1.3506753376688343,896.3041816374554,894.541094531136,0.03225237973203603,0.0,0.17080642093037757,0.22714471923617727,0.047626923628257704,1261.0092987844662,16452.503205998044
1.360680340170085,896.4701057854769,894.7659007189482,0.0326028038394038,0.0,0.1709146497509293,0.22703615759057708,0.04762639717528253,1260.9332340095511,16468.30495601163
1.3706853426713357,896.6324884624313,894.9854354743753,0.03295409973671172,0.0,0.17102314672572744,0.22692732607729993,0.04762586801231621,1260.8569792309493,16484.088153004395
1.3806903451725863,896.7914358010945,895.1998565259245,0.03330626293333779,0.0,0.17113191049607393,0.2268182260788139,0.047625336176955316,1260.7805354403617,16499.85275379534
1.3906953476738368,896.9470507854693,895.4093169058187,0.033659289077740184,0.0,0.17124093974559892,0.22670885893468276,0.0476248017058852,1260.7039035989162,16515.598718366833
1.4007003501750874,897.0994333452647,895.6139650915401,0.03401317395365171,0.0,0.1713502331990941,0.2265992259427422,0.04762426463489495,1260.6270846379948,16531.3260097575
1.4107053526763382,897.2486804474804,895.8139451430036,0.03436791347637774,0.0,0.1714597896213779,0.22648932836024407,0.04762372499889245,1260.550079460045,16547.03459395852
1.4207103551775888,897.3948861851674,896.0093968354756,0.03472350368919576,0.0,0.17156960781619274,0.2263791674049689,0.0476231828319196,1260.4728889393664,16562.724439813257
1.4307153576788394,897.5381418634722,896.2004557883981,0.035079940759853,0.0,0.17167968662513197,0.22626874425630814,0.04762263816716758,1260.3955139228763,16578.395518920002
1.44072036018009,897.6785360830512,896.3872535902501,0.03543722097715947,0.0,0.1717900249265977,0.22615806005631672,0.04762209103699216,1260.3179552308534,16594.047805537928
1.4507253626813406,897.8161548209398,896.5699179195759,0.03579534074767386,0.0,0.17190062163478617,0.22604711591073687,0.04762154147292908,1260.2402136576652,16609.68127649591
1.4607303651825914,897.9510815089569,896.7485726623015,0.03615429659247974,0.0,0.1720114756987018,0.22593591288999393,0.04762098950570948,1260.162289972473,16625.295911104324
1.470735367683842,898.0833971097209,896.9233380254578,0.036514085144049545,0.0,0.17212258610119843,0.22582445203016482,0.04762043516527513,1260.0841849199164,16640.891691069643
1.4807403701850925,898.213180190357,897.0943306474268,0.03687470314319411,0.0,0.17223395185804688,0.22571273433392022,0.04761987848079384,1260.0058992207835,16656.468600411703
1.490745372686343,898.3405069939633,897.261663704819,0.03723614743609532,0.0,0.17234557201702816,0.22560076077144087,0.04761931948067462,1259.9274335726607,16672.02662538367
1.5007503751875937,898.465451508912,897.4254470160914,0.03759841497141951,0.0,0.17245744565705207,0.22548853228130863,0.047618758192582926,1259.8487886505643,16687.565754394494
1.5107553776888443,898.5880855360457,897.5857871420076,0.037961502797509775,0.0,0.17256957188729952,0.2253760497713737,0.04761819464345564,1259.769965107557,16703.08597793388
1.520760380190095,898.708478753846,897.742787483041,0.038325408059654544,0.0,0.17268194984638896,0.2252633141195975,0.04761762885951609,1259.6909635753457,16718.58728849963
1.5307653826913457,898.8266987816254,897.8965483738156,0.038690127997430754,0.0,0.17279457870156567,0.22515032617487302,0.04761706086628884,1259.6117846648642,16734.06968052729
1.5407703851925962,898.9428112408026,898.0471671746621,0.039055659942120055,0.0,0.1729074576479134,0.2250370867578222,0.0476164906886144,1259.5324289668417,16749.53315032207
1.5507753876938468,899.0568798143361,898.1947383604128,0.03942200131419468,0.0,0.1730205859075876,0.22492359666157197,0.04761591835066369,1259.4528970523525,16764.977695992937
1.5607803901950974,899.168966304385,898.3393536065288,0.03978914962087142,0.0,0.17313396272906975,0.224809856652509,0.04761534387595254,1259.373189473352,16780.40331738876
1.5707853926963482,899.2791306882162,898.4811018726003,0.04015710245373261,0.0,0.1732475873864422,0.22469586747101403,0.0476147672873558,1259.2933067632036,16795.81001603652
1.5807903951975988,899.3874311724303,898.6200694833199,0.04052585748641217,0.0,0.17336145917868284,0.2245816298321757,0.04761418860712141,1259.2132494371808,16811.19779508156
1.5907953976988494,899.4939242455537,898.7563402070067,0.04089541247234478,0.0,0.1734755774289796,0.22446714442648522,0.04761360785688424,1259.1330179929653,16826.566659229622
1.6008004002001,899.5986647290543,898.8899953317635,0.04126576524257614,0.0,0.1735899414840634,0.2243524119205116,0.047613025057679746,1259.0526129111272,16841.916614690832
1.6108054027013505,899.701705826822,899.0211137393336,0.04163691370363325,0.0,0.17370455071355956,0.2242374329575593,0.04761244022995743,1258.9720346555923,16857.247669125474
1.6208104052026013,899.8030991731672,899.1497719767345,0.042008855835452386,0.0,0.17381940450935704,0.22412220815830664,0.04761185339359406,1258.8912836740983,16872.55983159145
1.630815407703852,899.9028948793793,899.2760443257315,0.04238158968936382,0.0,0.17393450228499518,0.2240067381214282,0.047611264567906826,1258.8103603986374,16887.853112493467
1.6408204102051025,900.0011415788905,899.4000028702242,0.04275511338613132,0.0,0.17404984347506683,0.22389102342419898,0.047610673771666036,1258.7292652458866,16903.12752353382
1.650825412706353,900.0978864710885,899.5217175616046,0.043129425114045127,0.0,0.17416542753463846,0.22377506462308283,0.04761008102310785,1258.647998617628,16918.3830776648
1.6608304152076037,900.1931753638174,899.6412562821527,0.043504523127066874,0.0,0.1742812539386855,0.2236588622543046,0.04760948633994668,1258.5665609011564,16933.61978904259
1.6708354177088545,900.2870527146093,899.7586849065272,0.043880405743025055,0.0,0.174397322181544,0.22354241683440654,0.0476088897393874,1258.4849524696763,16948.83767298265
1.680840420210105,900.3795616706828,899.8740673614147,0.04425707134185967,0.0,0.1745136317763765,0.22342572886078965,0.047608291238137264,1258.4031736826876,16964.036745916535
1.6908454227113556,900.4707441077435,899.9874656833797,0.04463451836391496,0.0,0.17463018225465315,0.22330879881224033,0.047607690852417756,1258.3212248863617,16979.21702535014
1.7008504252126062,900.5606406676245,900.0989400749809,0.04501274530827868,0.0,0.17474697316564702,0.2231916271494421,0.04760708859797609,1258.2391064139074,16994.378529823236
1.7108554277138568,900.6492907948228,900.2085489592324,0.045391750731165845,0.0,0.17486400407594271,0.22307421431547428,0.04760648449009658,1258.1568185859255,17009.521278870332
1.7208604302151076,900.7367327719354,900.3163490324218,0.04577153324434687,0.0,0.17498127456895893,0.22295656073629644,0.04760587854361171,1258.0743617107553,17024.645292982794
1.7308654327163582,900.8230037540402,900.4223953153457,0.04615209151361871,0.0,0.17509878424448394,0.22283866682121997,0.04760527077291308,1257.9917360848117,17039.75059357221
1.7408704352176088,900.9081398020527,900.5267412030126,0.04653342425731755,0.0,0.17521653271822366,0.22272053296336627,0.04760466119196203,1257.908941992912,17054.837202934887
1.7508754377188593,900.992175915089,900.6294385128627,0.046915530244872106,0.0,0.1753345196213625,0.2226021595401131,0.047604049814300164,1257.825979708595,17069.90514421755
1.76088044022011,901.0751460618678,900.7305375315466,0.047298408295396215,0.0,0.17545274460013588,0.22248354691352826,0.047603436653059564,1257.74284949443,17084.95444138413
1.7708854427213607,901.1570832111781,900.830087060309,0.04768205727631985,0.0,0.17557120731541462,0.22236469543079165,0.04760282172097283,1257.6595516023197,17099.985119183613
1.7808904452226113,901.2380193614416,900.9281344590162,0.04806647610205733,0.0,0.17568990744230037,0.22224560542460572,0.04760220503038292,1257.5760862737932,17114.997203118965
1.7908954477238619,901.3179855693973,901.0247256888739,0.04845166373271188,0.0,0.1758088446697328,0.22212627721359482,0.0476015865932528,1257.49245374029,17129.990719417023
1.8009004502251125,901.3970119779341,901.1199053538692,0.048837619172815386,0.0,0.17592801870010674,0.22200671110269377,0.04760096642117477,1257.40865422344,17144.965694999402
1.810905452726363,901.4751278430992,901.2137167409794,0.0492243414701025,0.0,0.17604742924890052,0.22188690738352543,0.04760034452537975,1257.3246879353317,17159.922157454323
1.8209104552276139,901.5523615603034,901.3062018591836,0.04961182971431808,0.0,0.17616707604431375,0.22176686633476855,0.0475997209167463,1257.240555078776,17174.86013500938
1.8309154577288644,901.6287406897502,901.3974014773111,0.0500000830360571,0.0,0.1762869588269155,0.22164658822251515,0.047599095605809334,1257.1562558475616,17189.779656505176
1.840920460230115,901.7042919811104,901.4873551607641,0.050389100605636256,0.0,0.1764070773493021,0.2215260733006182,0.04759846860276885,1257.0717904267044,17204.680751369804
1.8509254627313656,901.7790413974612,901.5761013071386,0.05077888163199638,0.0,0.17652743137576402,0.22140532181103015,0.04759783991749824,1256.9871589926881,17219.563449594218
1.8609304652326162,901.8530141385273,901.663677180806,0.051169425361634234,0.0,0.17664802068196198,0.22128433398413178,0.047597209559552614,1256.9023617137007,17234.427781708357
1.870935467733867,901.9262346632328,901.7501189464599,0.051560731077563544,0.0,0.1767688450546118,0.2211631100390527,0.04759657753817676,1256.8173987498642,17249.27377875806
1.8809404702351176,901.9987267115806,901.8354617016632,0.051952798098304255,0.0,0.17688990429117793,0.22104165018398259,0.04759594386231304,1256.7322702534548,17264.101472282753
1.8909454727363681,902.0705133258884,901.9197395084279,0.052345625776899454,0.0,0.1770111981995754,0.22091995461647423,0.04759530854060909,1256.6469763691236,17278.910894293862
1.9009504752376187,902.1416168713937,902.0029854238572,0.05273921349995893,0.0,0.17713272659787982,0.22079802352373823,0.047594671581425205,1256.561517234104,17293.70207725391
1.9109554777388693,902.2120590562519,902.0852315298769,0.053133560686728754,0.0,0.17725448931404517,0.22067585708292967,0.047594032992841796,1256.4758929784196,17308.47505405636
1.9209604802401201,902.2818609509434,902.1665089620859,0.05352866678818613,0.0,0.1773764861856297,0.22055345546142704,0.04759339278266643,1256.3901037250814,17323.229858006074
1.9309654827413707,902.3510430071078,902.2468479377479,0.05392453128615885,0.0,0.17749871705952866,0.22043081881710364,0.04759275095844086,1256.3041495902842,17337.966522800412
1.9409704852426213,902.4196250758231,902.3262777829555,0.05432115369246868,0.0,0.17762118179171504,0.22030794729859132,0.04759210752744777,1256.2180306835942,17352.68508251102
1.9509754877438719,902.4876264253443,902.4048269589847,0.05471853354809798,0.0,0.17774388024698662,0.22018484104553743,0.047591462496717474,1256.1317471081331,17367.385571566134
1.9609804902451224,902.5550657583216,902.4825230878716,0.055116670422379055,0.0,0.17786681229872067,0.22006150018885454,0.04759081587303442,1256.0452989607581,17382.068024733522
1.970985492746373,902.6219612285089,902.5593929772277,0.0555155639122053,0.0,0.1779899778286346,0.21993792485096345,0.04759016766294342,1255.958686332234,17396.73247710401
1.9809904952476238,902.6883304569833,902.6354626443202,0.055915213641264,0.0,0.17811337672655358,0.21981411514602958,0.04758951787275588,1255.8719093074044,17411.378964075502
1.9909954977488744,902.7541905478847,902.7107573394372,0.056315619259289754,0.0,0.17823700889018454,0.21969007118019307,0.04758886650855583,1255.7849679653543,17426.00752133757
2.001000500250125,902.8195581036902,902.7853015685571,0.056716780441338495,0.0,0.17836087422489577,0.21956579305179227,0.047588213576205754,1255.697862379573,17440.61818485656
2.0110055027513756,902.8844492400466,902.8591191153502,0.05711869688708075,0.0,0.1784849726435033,0.21944128085158163,0.04758755908135234,1255.6105926181078,17455.210990861182
2.0210105052526264,902.9488796001667,902.9322330625336,0.05752136832011419,0.0,0.1786093040660622,0.21931653466294343,0.04758690302943205,1255.523158743717,17469.78597582857
2.0310155077538767,903.012864368802,903.0046658125864,0.05792479448729468,0.0,0.17873386841966432,0.2191915545620939,0.047586245425676556,1255.4355608140163,17484.343176470862
2.0410205102551275,903.0764182858059,903.0764391078511,0.058328975158085744,0.0,0.17885866563824093,0.21906634061828353,0.04758558627511807,1255.347798881624,17498.88262972216
2.0510255127563783,903.1395556592996,903.147574050039,0.05873391012392542,0.0,0.17898369566237107,0.21894089289399227,0.04758492558259451,1255.2598729942993,17513.404372726007
2.0610305152576287,903.2022903784546,903.2180911191576,0.05913959919761036,0.0,0.17910895843909505,0.21881521144511917,0.047584263352754494,1255.1717831950798,17527.90844282322
2.0710355177588795,903.2646359259003,903.2880101918755,0.059546042212696534,0.0,0.1792344539217328,0.21868929632116701,0.047583599590062337,1255.0835295224117,17542.394877540188
2.08104052026013,903.3266053897717,903.3573505593433,0.05995323902291615,0.0,0.1793601820697073,0.21856314756542197,0.04758293429880275,1254.9951120102805,17556.863714577517
2.0910455227613807,903.388211475406,903.426130944486,0.06036118950161036,0.0,0.17948614284837303,0.2184367652151284,0.04758226748308559,1254.9065306883354,17571.314991799136
2.1010505252626315,903.4494665167001,903.4943695187807,0.06076989354117718,0.0,0.17961233622884828,0.21831014930165868,0.04758159914685034,1254.8177855820104,17585.748747221674
2.111055527763882,903.5103824871388,903.5620839185374,0.06117935105253442,0.0,0.17973876218785304,0.218183299850679,0.047580929293870595,1254.7288767126447,17600.165019004315
2.1210605302651326,903.570971010504,903.6292912606951,0.06158956196459707,0.0,0.17986542070755032,0.21805621688231017,0.047580257927758336,1254.6398040975969,17614.563845438894
2.131065532766383,903.6312433712764,903.6960081581497,0.062000526223768636,0.0,0.1799923117753923,0.2179289004112843,0.047579585051968146,1254.5505677503568,17628.94526494042
2.141070535267634,903.6912105247368,903.7622507346238,0.062412243793446454,0.0,0.1801194353839706,0.2178013504470971,0.04757891066980131,1254.4611676806555,17643.30931603788
2.151075537768884,903.7508831067782,903.8280346390937,0.06282471465354,0.0,0.1802467915308703,0.21767356699415663,0.04757823478440983,1254.3716038945718,17657.65603736538
2.161080540270135,903.8102714434383,903.8933750597863,0.06323793880000253,0.0,0.1803743802185281,0.2175455500519271,0.04757755739880026,1254.281876394635,17671.98546765359
2.1710855427713858,903.8693855601634,903.9582867377644,0.06365191624437473,0.0,0.1805022014540943,0.2174172996150698,0.047576878515837556,1254.1919851799266,17686.297645721465
2.181090545272636,903.9282351908105,904.0227839801021,0.06406664701334092,0.0,0.18063025524929816,0.21728881567357958,0.04757619813824869,1254.1019302461773,17700.59261046833
2.191095547773887,903.9868297863943,904.0868806726676,0.06448213114829726,0.0,0.18075854162031751,0.21716009821291804,0.04757551626862632,1254.0117115858623,17714.870400866148
2.2011005502751373,904.0451785235912,904.1505902925202,0.06489836870493121,0.0,0.18088706058765117,0.21703114721414293,0.047574832909432235,1253.9213291882952,17729.131055952137
2.211105552776388,904.103290313006,904.213925919939,0.06531535975281252,0.0,0.18101581217599516,0.21690196265403414,0.047574148063000754,1253.8307830397177,17743.374614821616
2.221110555277639,904.1611738072137,904.2769002500877,0.06573310437499487,0.0,0.1811447964141221,0.21677254450521666,0.047573461731542095,1253.7400731233877,17757.601116621106
2.2311155577788893,904.2188374085792,904.339525604329,0.06615160266762832,0.0,0.1812740133347638,0.2166428927362795,0.04757277391714555,1253.6491994196638,17771.81060054171
2.24112056028014,904.2762892768686,904.4018139411967,0.06657085473958196,0.0,0.1814034629744973,0.2165130073118925,0.047572084621782675,1253.5581619060906,17786.003105812684
2.2511255627813904,904.3335373366565,904.4637768670368,0.06699086071207654,0.0,0.18153314537363327,0.2163828881929189,0.047571393847310316,1253.4669605574784,17800.178671695296
2.2611305652826412,904.3905892845385,904.5254256463244,0.06741162071832688,0.0,0.18166306057610795,0.2162525353365259,0.047570701595473615,1253.3755953459822,17814.33733747686
2.271135567783892,904.4474525961579,904.5867712116655,0.06783313490319366,0.0,0.18179320862937765,0.21612194869629178,0.047570007867908895,1253.2840662411797,17828.47914246505
2.2811405702851424,904.504134533052,904.6478241734931,0.06825540342284443,0.0,0.18192358958431618,0.21599112822231045,0.047569312666146495,1253.1923732101457,17842.60412598235
2.291145572786393,904.5606421493294,904.7085948294658,0.06867842644442354,0.0,0.1820542034951149,0.2158600738612928,0.04756861599161354,1253.1005162175234,17856.71232736079
2.3011505752876436,904.6169822981836,904.7690931735727,0.06910220414573047,0.0,0.18218505041918523,0.21572878555666614,0.04756791784563662,1253.0084952255972,17870.80378593684
2.3111555777888944,904.6731616382502,904.8293289049552,0.06952673671490697,0.0,0.18231613041706424,0.21559726324867046,0.04756721822944434,1252.9163101943616,17884.878541046495
2.321160580290145,904.7291866398226,904.8893114364572,0.06995202435013186,0.0,0.1824474435523217,0.2154655068744522,0.04756651714416995,1252.8239610815888,17898.93663202057
2.3311655827913955,904.7850635909268,904.9490499029012,0.07037806725932388,0.0,0.18257898989147067,0.2153335163681563,0.04756581459085378,1252.7314478428923,17912.97809818018
2.3411705852926463,904.8407986032669,905.008553169101,0.0708048656598522,0.0,0.18271076950387957,0.21520129166101487,0.04756511057044563,1252.638770431794,17927.00297883241
2.3511755877938967,904.8963976180495,905.0678298376179,0.07123241977825424,0.0,0.18284278246168664,0.21506883268143434,0.04756440508380717,1252.5459287997837,17941.011313266095
2.3611805902951475,904.9518664116963,905.1268882562608,0.0716607298499608,0.0,0.18297502883971709,0.2149361393550801,0.047563698131714204,1252.4529228963818,17955.003140747882
2.3711855927963983,905.0072106014528,905.1857365253417,0.07208979611902788,0.0,0.1831075087154015,0.2148032116049592,0.04756298971485886,1252.359752669197,17968.978500518366
2.3811905952976486,905.0624356509045,905.2443825046869,0.07251961883787535,0.0,0.18324022216869687,0.21467004935150066,0.047562279833851855,1252.2664180639847,17982.937431788414
2.3911955977988995,905.1175468754095,905.3028338204102,0.07295019826703215,0.0,0.18337316928200953,0.21453665251263412,0.04756156848922451,1252.1729190247036,17996.87997373571
2.40120060030015,905.1725494474568,905.3610978714511,0.07338153467488744,0.0,0.18350635014011973,0.21440302100386643,0.0475608556814309,1252.0792554935701,18010.80616550136
2.4112056028014006,905.2274484019623,905.4191818358806,0.07381362833744803,0.0,0.18363976483010808,0.21426915473835648,0.04756014141084981,1251.9854274111126,18024.716046186688
2.4212106053026514,905.2822486415134,905.4770926769813,0.07424647953810154,0.0,0.183773413441284,0.21413505362698787,0.04755942567778674,1251.891434716222,18038.609654850246
2.431215607803902,905.3369549415734,905.5348371490984,0.0746800885673849,0.0,0.18390729606511555,0.2140007175784406,0.047558708482475766,1251.797277346205,18052.48703050486
2.4412206103051526,905.3915719556594,905.5924218032686,0.07511445572275861,0.0,0.184041412795161,0.21386614649926042,0.04755798982508146,1251.7029552368322,18066.348212114946
2.451225612806403,905.4461042205049,905.6498529926264,0.07554958130838568,0.0,0.18417576372700206,0.2137313402939268,0.047557269705700726,1251.6084683223892,18080.193238593827
2.4612306153076537,905.5005561612235,905.7071368775863,0.07598546563491577,0.0,0.1843103489581783,0.21359629886491974,0.047556548124364516,1251.5138165357207,18094.02214880134
2.4712356178089045,905.5549320964882,905.7642794308081,0.07642210901927382,0.0,0.18444516858812324,0.21346102211278464,0.047555825081039636,1251.4189998082807,18107.834981541506
2.481240620310155,905.6092362437422,905.8212864419384,0.076859511784453,0.0,0.18458022271810173,0.21332550993619617,0.0475551005756304,1251.3240180701764,18121.631775560334
2.4912456228114057,905.6634727244581,905.8781635221311,0.07729767425931212,0.0,0.18471551145114842,0.2131897622320207,0.04755437460798037,1251.2288712502125,18135.41256954381
2.501250625312656,905.7176455694636,905.9349161083416,0.07773659677837674,0.0,0.18485103489200763,0.21305377889537752,0.04755364717787392,1251.1335592759372,18149.177402115998
2.511255627813907,905.7717587243559,905.9915494673957,0.0781762796816442,0.0,0.1849867931470742,0.21291755981969895,0.04755291828503788,1251.0380820736827,18162.926311837295
2.5212606303151577,905.8258160550242,906.0480686998294,0.07861672331439175,0.0,0.1851227863243355,0.21278110489678953,0.047552187929143064,1250.9424395686094,18176.65933720284
2.531265632816408,905.8798213533042,906.104478743494,0.07905792802698818,0.0,0.18525901453331436,0.21264441401688378,0.04755145610980586,1250.8466316847462,18190.376516641038
2.541270635317659,905.9337783427917,906.1607843769237,0.07949989417470835,0.0,0.1853954778850127,0.2125074870687037,0.04755072282658975,1250.7506583450322,18204.077888512275
2.551275637818909,905.9876906848411,906.2169902224591,0.07994262211755003,0.0,0.1855321764918563,0.212370323939515,0.04754998807900674,1250.654519471358,18217.763491107733
2.56128064032016,906.0415619847787,906.2731007491197,0.08038611222005342,0.0,0.18566911046763987,0.21223292451518264,0.047549251866518934,1250.5582149846036,18231.43336264842
2.571285642821411,906.0953957983638,906.3291202752179,0.08083036485112231,0.0,0.1858062799274731,0.21209528868022617,0.04754851418853988,1250.4617448046783,18245.08754128431
2.581290645322661,906.1491956385341,906.385052970707,0.0812753803838474,0.0,0.18594368498772704,0.21195741631787393,0.0475477750444361,1250.3651088505612,18258.726065093655
2.591295647823912,906.202964982471,906.4409028592504,0.08172115919533057,0.0,0.18608132576598072,0.2118193073101174,0.0475470344335285,1250.2683070403389,18272.348972082516
2.6013006503251623,906.2567072790304,906.496673820005,0.08216770166651023,0.0,0.1862192023809685,0.21168096153776483,0.047546292355093736,1250.1713392912436,18285.956300184385
2.611305652826413,906.3104259565803,906.5523695891007,0.08261500818198746,0.0,0.18635731495252716,0.21154237888049499,0.0475455488083657,1250.0742055196918,18299.54808726007
2.621310655327664,906.3641244312998,906.6079937608126,0.08306307912985211,0.0,0.18649566360154332,0.21140355921691056,0.04754480379253689,1249.9769056413238,18313.12437109774
2.6313156578289143,906.4178061159917,906.6635497884016,0.08351191490150875,0.0,0.18663424844990073,0.21126450242459197,0.04754405730675983,1249.8794395710408,18326.685189413165
2.641320660330165,906.4714744294632,906.7190409846147,0.08396151589150222,0.0,0.18677306962042714,0.21112520838015103,0.047543309350148485,1249.781807223043,18340.230579850202
2.6513256628314155,906.5251328065492,906.7744705218245,0.08441188249734141,0.0,0.18691212723684136,0.21098567695928527,0.04754255992177969,1249.6840085108706,18353.760579981474
2.6613306653326663,906.5787847088368,906.829841431794,0.08486301511932219,0.0,0.18705142142369913,0.21084590803683256,0.04754180902069461,1249.5860433474406,18367.275227309332
2.671335667833917,906.6324336361764,906.885156605045,0.08531491416034735,0.0,0.18719095230633886,0.21070590148682652,0.04754105664590017,1249.4879116450882,18380.77455926702
2.6813406703351674,906.6860831390568,906.9404187898172,0.08576758002574443,0.0,0.1873307200108263,0.2105656571825527,0.047540302796370525,1249.3896133156052,18394.258613220183
2.6913456728364182,906.7397368319364,906.9956305905931,0.08622101312307986,0.0,0.18747072466389816,0.21042517499660593,0.047539547471048604,1249.2911482702832,18407.727426468613
2.7013506753376686,906.7933984076283,907.0507944661781,0.08667521386196912,0.0,0.18761096639290473,0.21028445480094868,0.04753879066884764,1249.1925164199545,18421.18103624834
2.7113556778389194,906.8470716528435,907.1059127273131,0.08713018265388235,0.0,0.18775144532575083,0.21014349646697117,0.04753803238865276,1249.0937176750335,18434.619479734072
2.72136068034017,906.9007604650086,907.1609875338069,0.08758591991194453,0.0,0.18789216159083516,0.21000229986555285,0.047537272629322565,1248.994751945564,18448.04279404195
2.7313656828414206,906.9544688704796,907.2160208911777,0.08804242605072955,0.0,0.18803311531698821,0.2098608648671259,0.04753651138969087,1248.8956191412617,18461.45101623278
2.7413706853426714,907.0082010442852,907.2710146467921,0.08849970148604779,0.0,0.18817430663340748,0.2097191913417407,0.047535748668568426,1248.7963191715626,18474.844183315625
2.7513756878439217,907.0619613315436,907.3259704855022,0.08895774663472547,0.0,0.18831573566959084,0.20957727915913388,0.047534984464744655,1248.6968519456716,18488.222332251888
2.7613806903451725,907.1157542707039,907.3808899247834,0.08941656191437647,0.0,0.18845740255526736,0.20943512818879864,0.04753421877698962,1248.597217372612,18501.58549995988
2.7713856928464233,907.1695846187781,907.4357743093885,0.08987614774316433,0.0,0.18859930742032505,0.20929273830005815,0.04753345160405589,1248.4974153612795,18514.93372331995
2.7813906953476737,907.2234573787298,907.4906248055484,0.09033650453955482,0.0,0.18874145039473586,0.20915010936214187,0.047532682944680625,1248.3974458204955,18528.26703918018
2.7913956978489245,907.2773778292096,907.5454423947583,0.09079763272205783,0.0,0.1888838316084777,0.20900724124426495,0.047531912797587686,1248.2973086590641,18541.585484362706
2.801400700350175,907.3313515568259,907.6002278672181,0.09125953270895812,0.0,0.18902645119145237,0.20886413381571153,0.04753114116148979,1248.1970037858334,18554.889095670762
2.8114057028514257,907.3853844911548,907.6549818150102,0.09172220491803423,0.0,0.18916930927340084,0.20872078694592114,0.047530368035090934,1248.096531109755,18568.177909896414
2.8214107053526765,907.4394829426948,907.7097046251416,0.09218564976626537,0.0,0.18931240598381405,0.20857720050457929,0.04752959341708873,1247.9958905399494,18581.45196382917
2.831415707853927,907.4936536439795,907.7643964726054,0.09264986766952588,0.0,0.18945574145184038,0.20843337436171158,0.04752881730617692,1247.895081985776,18594.711294265348
2.8414207103551776,907.5479037940672,907.8190573136663,0.09311485904226766,0.0,0.18959931580618944,0.2082893083877816,0.04752803970104806,1247.7941053568986,18607.955938018506
2.851425712856428,907.6022411066191,907.873686879633,0.09358062429719001,0.0,0.18974312917503205,0.20814500245379278,0.047527260600396214,1247.6929605633627,18621.185931930784
2.861430715357679,907.6566738617793,907.9282846714436,0.09404716384489922,0.0,0.1898871816858968,0.2080004564313934,0.04752648000291973,1247.591647515668,18634.40131288542
2.8714357178589296,907.7112109620565,907.9828499554686,0.0945144780935575,0.0,0.19003147346556382,0.20785567019298476,0.047525697907324214,1247.4901661248468,18647.602117820337
2.88144072036018,907.7658619923918,908.037381761032,0.09498256744852429,0.0,0.19017600463995601,0.20771064361183197,0.04752491431232544,1247.3885163025427,18660.788383743115
2.8914457228614308,907.8206372845717,908.0918788802562,0.09545143231199263,0.0,0.19032077533402872,0.2075653765621759,0.04752412921665232,1247.2866979610924,18673.960147747188
2.901450725362681,907.8755479861094,908.1463398709597,0.09592107308262356,0.0,0.19046578567165887,0.20741986891934605,0.04752334261905,1247.1847110136036,18687.117447029566
2.911455727863932,907.9306061336775,908.2007630634794,0.09639149015518436,0.0,0.19061103577553548,0.20727412055987213,0.04752255451828274,1247.0825553740378,18700.260318910074
2.9214607303651827,907.9858247311158,908.2551465724484,0.09686268392019623,0.0,0.19075652576705243,0.2071281313615927,0.047521764913136796,1246.9802309572865,18713.38880085219
2.931465732866433,908.0412178319317,908.3094883147405,0.09733465476359955,0.0,0.1909022557662072,0.20698190120375837,0.0475209738024232,1246.8777376792448,18726.50293048563
2.941470735367684,908.0968006261643,908.3637860349746,0.0978074030664469,0.0,0.19104822589150755,0.2068354299671267,0.04752018118498012,1246.7750754568804,18739.602745630746
2.9514757378689342,908.1525895313441,908.4180373401846,0.09828092920463521,0.0,0.1911944362598904,0.20668871753404477,0.04751938705967505,1246.6722442082917,18752.688284324817
2.961480740370185,908.2086022871445,908.472239745471,0.09875523354869241,0.0,0.1913408869866568,0.20654176378851477,0.047518591425406334,1246.5692438527547,18765.759584850275
2.971485742871436,908.2648580531597,908.5263907326664,0.09923031646363556,0.0,0.19148757818542875,0.20639456861623837,0.04751779428110418,1246.4660743107552,18778.816685765036
2.981490745372686,908.3213775090624,908.5804878242453,0.0997061783089215,0.0,0.191634509968134,0.2062471319046315,0.047516995625730835,1246.3627355039982,18791.85962593485
2.991495747873937,908.3781829561676,908.6345286748931,0.10018281943851429,0.0,0.19178168244502633,0.20609945354280387,0.04751619545827964,1246.259227355394,18804.888444567765
3.0015007503751874,908.4352984192066,908.6885111832843,0.10066024020109726,0.0,0.19192909572474917,0.20595153342149375,0.047515393777772856,1246.155549789011,18817.903181250786
3.011505752876438,908.4927497468263,908.7424336266896,0.1011384409404621,0.0,0.19207674991445342,0.20580337143294802,0.04751459058325795,1246.0517027299886,18830.903875988522
3.0215107553776885,908.5505647090656,908.7962948210205,0.10161742199611072,0.0,0.192224645119979,0.20565496747073675,0.047513785873801874,1245.9476861044052,18843.890569243886
3.0315157578789393,908.6087730897407,908.8500943087708,0.10209718370411035,0.0,0.19237278144611356,0.20550632142948963,0.04751297964848326,1245.8434998390876,18856.863301980757
3.04152076038019,908.6674067713681,908.903832577022,0.10257772639824536,0.0,0.19252115899694083,0.20535743320454103,0.04751217190638188,1245.7391438613572,18869.822115708328
3.0515257628814405,908.7264998099562,908.957511307184,0.103059050411513,0.0,0.1926697778762931,0.20520830269146892,0.04751136264656503,1245.634618098699,18882.76705252708
3.0615307653826913,908.7860884966997,909.0111336574365,0.10354115607801256,0.0,0.1928186381883228,0.20505892978551257,0.04751055186807057,1245.529922478343,18895.698155175935
3.0715357678839417,908.8462114033907,909.0647045778649,0.10402404373527774,0.0,0.19296774003820807,0.20490931438085339,0.047509739569885856,1245.42505692675,18908.615467080443
3.0815407703851925,908.9069094080979,909.118231156988,0.10450771372710316,0.0,0.1931170835330083,0.2047594563697438,0.047508925750922464,1245.3200213689834,18921.51903240138
3.0915457728864433,908.9682256976461,909.1717229968791,0.1049921664069111,0.0,0.19326666878268295,0.20460935564146907,0.04750811040998596,1245.2148157279682,18934.40889608343
3.1015507753876936,909.0302057434113,909.2251926122879,0.10547740214170169,0.0,0.19341649590128698,0.20445901208112968,0.047507293545740646,1245.1094399236158,18947.2851039033
3.1115557778889444,909.092897247061,909.2786558471274,0.10596342131662022,0.0,0.1935665650083532,0.20430842556823295,0.047506475156668684,1245.003893871812,18960.147702516668
3.121560780390195,909.156350053171,909.3321322995178,0.10645022434016484,0.0,0.1937168762304685,0.2041575959750877,0.047505655241023605,1244.8981774832696,18972.9967395032
3.1315657828914456,909.2206160261192,909.3856457443682,0.1069378116500435,0.0,0.19386742970304655,0.20400652316499823,0.047504833796777994,1244.792290662229,18985.832263408975
3.1415707853926964,909.2857488893081,909.439224540376,0.10742618371967,0.0,0.19401822557229395,0.20385520699026155,0.04750401082156543,1244.6862333050256,18998.654323785413
3.1515757878939468,909.3518040256016,909.4929020064897,0.1079153410652696,0.0,0.19416926399736095,0.2037036472899764,0.04750318631261701,1244.5800052985132,19011.462971223882
3.1615807903951976,909.4188382388713,909.5467167515324,0.10840528425353914,0.0,0.19432054515266012,0.20355184388768155,0.04750236026669271,1244.4736065183756,19024.258257385223
3.171585792896448,909.4869094777034,909.6007129399984,0.1088960139097827,0.0,0.19447206923032845,0.20339979658884713,0.04750153268000858,1244.3670368273238,19037.040235023218
3.1815907953976987,909.5560765235714,909.6549404771854,0.10938753072641626,0.0,0.19462383644280176,0.2032475051782522,0.047500703548160265,1244.2602960732156,19049.808958001377
3.1915957978989495,909.6263986470846,909.7094550979646,0.10987983547171024,0.0,0.19477584702546033,0.2030949694172893,0.04749987286604433,1244.1533840871225,19062.564481302237
3.2016008004002,909.6979352372034,909.7643183456737,0.11037292899861474,0.0,0.19492810123929996,0.20294218904124295,0.04749904062777855,1244.0463006813773,19075.306861028566
3.2116058029014507,909.7707454095095,909.8195974308361,0.11086681225349297,0.0,0.19508059937357466,0.2027891637565968,0.047498206826622515,1243.9390456476417,19088.03615439604
3.221610805402701,909.8448876006133,909.8753649635736,0.11136148628457426,0.0,0.19523334174835422,0.20263589323842715,0.0474973714549005,1243.8316187550374,19100.75241971704
3.231615807903952,909.9204191565868,909.9316985583059,0.11185695224992855,0.0,0.19538632871693706,0.20248237712794398,0.04749653450392796,1243.7240197483789,19113.455716375425
3.2416208104052027,909.9973959238012,909.9886803147608,0.11235321142476416,0.0,0.195539560668057,0.20232861503024047,0.04749569596394341,1243.6162483465598,19126.146104792217
3.251625812906453,910.0758718506552,910.0463961846812,0.11285026520786091,0.0,0.19569303802782873,0.20217460651230962,0.04749485582404745,1243.5083042411281,19138.823646382585
3.261630815407704,910.1558986084699,910.1049352385654,0.11334811512696363,0.0,0.19584676126137723,0.2020203511013812,0.04749401407215012,1243.400187095091,19151.488403504358
3.271635817908954,910.2375252392853,910.1643888511995,0.11384676284298371,0.0,0.19600073087410633,0.20186584828362608,0.047493170694928095,1243.2918965419822,19164.140439398758
3.281640820410205,910.3207978374049,910.2248498281307,0.11434621015288672,0.0,0.1961549474125684,0.2017110975032664,0.047492325677792525,1243.18343218522,19176.77981812403
3.291645822911456,910.4057592704081,910.2864114974399,0.11484645899117553,0.0,0.1963094114649083,0.20155609816211847,0.04749147900486833,1243.0747935977759,19189.40660448281
3.301650825412706,910.4924489440249,910.3491667920377,0.11534751142991544,0.0,0.19646412366086477,0.20140084961958557,0.04749063065898536,1242.9659803221637,19202.02086394432
3.311655827913957,910.5809026138279,910.413207347267,0.11584936967728396,0.0,0.19661908467132472,0.20124535119310588,0.04748978062168137,1242.8569918707549,19214.622662562262
3.3216608304152073,910.6711522452372,910.4786226369202,0.11635203607466259,0.0,0.19677429520743436,0.20108960215905028,0.04748892887321664,1242.7478277264158,19227.212066889635
3.331665832916458,910.7632259219056,910.545499168094,0.11685551309232096,0.0,0.19692975601928364,0.20093360175405442,0.04748807539259959,1242.6384873434547,19239.78914389152
3.341670835417709,910.8571478012573,910.6139197518328,0.11735980332376986,0.0,0.19708546789418593,0.2007773491767616,0.04748722015762282,1242.528970148862,19252.353960856883
3.3516758379189593,910.9529381147985,910.6839628625742,0.11786490947888345,0.0,0.19724143165458394,0.20062084358994542,0.0474863631449083,1242.419275543824,19264.906585310437
3.36168084042021,911.0506132098926,910.7557020952713,0.11837083437590534,0.0,0.19739764815561606,0.20046408412297714,0.04748550432996064,1242.3094029054791,19277.447084925545
3.3716858429214605,911.150185628943,910.8292057249681,0.11887758093246409,0.0,0.19755411828238145,0.20030706987459898,0.047484643687227365,1242.1993515888944,19289.975527438946
3.3816908454227113,911.2516642214857,910.9045363698852,0.11938515215572576,0.0,0.19771084294694147,0.20014979991596368,0.04748378119016468,1242.0891209292317,19302.49198056813
3.391695847923962,911.3550542844148,910.9817507558062,0.11989355113180902,0.0,0.19786782308509657,0.19999227329390265,0.047482916811307355,1241.9787102440744,19314.99651193202
3.4017008504252124,911.4603577253566,911.0608995765739,0.12040278101458413,0.0,0.19802505965297373,0.1998344890343838,0.04748205052234182,1241.8681188358878,19327.489188975396
3.4117058529264632,911.5675732444018,911.1420274435053,0.12091284501396224,0.0,0.198182553623458,0.19967644614612806,0.04748118229418088,1241.7573459945968,19339.97007889765
3.4217108554277136,911.6766965295803,911.2251729149566,0.12142374638376846,0.0,0.1983403059824946,0.19951814362435444,0.04748031209703914,1241.6463910002456,19352.439248586077
3.4317158579289644,911.7877204617837,911.3103685962955,0.12193548840927401,0.0,0.1984983177252855,0.19935958045463115,0.047479439900508125,1241.5352531257363,19364.896764553883
3.441720860430215,911.9006353252281,911.3976413000793,0.12244807439444452,0.0,0.19865658985239676,0.19920075561681508,0.04747856567363027,1241.423931639628,19377.342692883212
3.4517258629314655,912.0154290199844,911.4870122562037,0.12296150764894108,0.0,0.19881512336578708,0.19904166808906873,0.04747768938497083,1241.3124258089858,19389.777099173047
3.4617308654327164,912.1320872735558,911.5784973621238,0.12347579147489048,0.0,0.198973919264763,0.19888231685194882,0.04747681100268746,1241.2007349022804,19402.200048492086
3.4717358679339667,912.2505938489409,911.6721074638212,0.12399092915341926,0.0,0.19913297854185802,0.19872270089256938,0.047475930494596676,1241.0888581923357,19414.611605336464
3.4817408704352175,912.3709307470606,911.7678486589733,0.12450692393092715,0.0,0.19929230217862795,0.1985628192088464,0.047475047828236916,1240.9767949593343,19427.01183359217
3.4917458729364683,912.4930784018416,911.8657226146609,0.12502377900505246,0.0,0.19945189114134743,0.19840267081383842,0.04747416297092794,1240.8645444938809,19439.400796501996
3.5017508754377187,912.6170158666282,911.9657268928939,0.12554149751026525,0.0,0.19961174637658768,0.19824225474020435,0.047473275889826506,1240.7521061001517,19451.778556636873
3.5117558779389695,912.7427209909392,912.0678552781851,0.12606008250300002,0.0,0.19977186880664843,0.19808157004480417,0.0474723865519779,1240.639479099135,19464.145175871254
3.52176088044022,912.8701705868784,912.1720981023119,0.12657953694622326,0.0,0.19993225932481054,0.19792061581347636,0.04747149492436373,1240.526662831997,19476.50071536235
3.5317658829414706,912.9993405847778,912.2784425622958,0.12709986369330795,0.0,0.20009291879037058,0.19775939116603086,0.04747060097394565,1240.413656663591,19488.84523553302
3.5417708854427215,913.1302061778724,912.3868730284627,0.12762106547107152,0.0,0.20025384802341256,0.19759789526150293,0.04746970466770531,1240.300459986147,19501.17879605793
3.551775887943972,913.2627419559636,912.4973713400481,0.12814314486180772,0.0,0.20041504779926436,0.1974361273037193,0.04746880597268056,1240.1870722231788,19513.501455852875
3.5617808904452226,913.3969220281905,912.6099170865318,0.12866610428412284,0.0,0.20057651884258026,0.19727408654723652,0.047467904855998055,1240.073492833645,19525.813273066844
3.571785892946473,913.5327201351511,912.7244878734226,0.12918994597236294,0.0,0.20073826182098314,0.197111772303717,0.04746700128490249,1239.9597213164125,19538.114305076706
3.5817908954477238,913.6701097506946,912.8410595716683,0.12971467195439448,0.0,0.20090027733819363,0.19694918394881647,0.04746609522678267,1239.8457572150774,19550.404608484198
3.5917958979489746,913.8090641737696,912.9596065502549,0.13024028402747215,0.0,0.20106256592656283,0.19678632092966583,0.04746518664919438,1239.7316001231943,19562.684239115002
3.601800900450225,913.949556610763,913.0801018918752,0.1307667837318991,0.0,0.20122512803891793,0.1966231827730381,0.0474642755198806,1239.617249689985,19574.953252019724
3.6118059029514757,914.0915602487786,913.2025175918047,0.13129417232215124,0.0,0.20138796403961906,0.19645976909430288,0.0474633618067891,1239.50270562659,19587.211701476488
3.621810905452726,914.2350483203312,913.3268247403151,0.13182245073510077,0.0,0.20155107419471377,0.19629607960728113,0.04746244547808749,1239.3879677129498,19599.45964099499
3.631815907953977,914.379994159918,913.4529936891139,0.13235161955493496,0.0,0.20171445866106488,0.19613211413512582,0.047461526502176166,1239.2730358053977,19611.697123321876
3.6418209104552277,914.5263712529276,913.5809942024068,0.13288167897431985,0.0,0.20187811747431134,0.19596787262236787,0.047460604847699164,1239.1579098450625,19623.92420044713
3.651825912956478,914.6741532773199,913.710795593251,0.13341262875130963,0.0,0.20204205053550778,0.19580335514828195,0.04745968048355326,1239.0425898671929,19636.140923611434
3.661830915457729,914.8233141384982,913.8423668459188,0.13394446816144762,0.0,0.202206257596271,0.19563856194174525,0.04745875337889525,1238.9270760115187,19648.347343314297
3.6718359179589792,914.9738279977502,913.975676725012,0.13447719594444008,0.0,0.20237073824224153,0.19547349339777922,0.04745782350314793,1238.8113685337848,19660.54350932281
3.68184092046023,915.1256692946116,914.1106938720678,0.13501081024471362,0.0,0.2025354918746465,0.1953081500959897,0.04745689082600459,1238.6954678186087,19672.72947068082
3.691845922961481,915.2788127634601,914.2473868903896,0.13554530854510582,0.0,0.20270051768973132,0.1951425328211374,0.04745595531743238,1238.5793743938195,19684.90527571856
3.701850925462731,915.4332334446117,914.3857244188,0.1360806875928387,0.0,0.20286581465579603,0.19497664258610284,0.0474550169476747,1238.463088946468,19697.070972062444
3.711855927963982,915.5889066901553,914.5256751949887,0.13661694331683097,0.0,0.20303138148754477,0.19481048065753825,0.047454075687252524,1238.3466123407077,19709.226606645007
3.7218609304652324,915.7458081647078,914.6672081090802,0.13715407073530841,0.0,0.20319721661742338,0.19464404858452966,0.047453131506965215,1238.2299456377723,19721.372225714873
3.731865932966483,915.9039138412359,914.8102922479997,0.13769206385255703,0.0,0.20336331816358985,0.19447734823062732,0.04745218437789042,1238.1130901183044,19733.507874846553
3.741870935467734,916.0631999920361,914.9548969311621,0.13823091554353806,0.0,0.20352968389411716,0.19431038180964183,0.04745123427138365,1237.9960473073022,19745.63359895013
3.7518759379689843,916.2236431749274,915.1009917379492,0.13877061742494964,0.0,0.2036963111869922,0.19414315192564502,0.04745028115907731,1237.878819002005,19757.74944228058
3.761880940470235,916.3852202146543,915.248546527387,0.13931115971117283,0.0,0.20386319698542407,0.19397566161766058,0.04744932501287951,1237.7614073030393,19769.855448446728
3.7718859429714855,916.5479081794512,915.3975314503713,0.13985253105337994,0.0,0.20403033774792972,0.19380791440957804,0.047448365804972595,1237.6438146492103,19781.95166041967
3.7818909454727363,916.7116843526746,915.547916954729,0.1403947183599162,0.0,0.20419772939260866,0.19363991436587658,0.047447403507811625,1237.5260438563432,19794.038120540663
3.791895947973987,916.876526199353,915.6996737833462,0.14093770659588312,0.0,0.20436536723496607,0.1934716661538009,0.04744643809412282,1237.4080981606185,19806.114870528236
3.8019009504752375,917.0424113274504,915.8527729655232,0.14148147855966484,0.0,0.20453324591858263,0.19330317511269102,0.047445469536902145,1237.289981266895,19818.181951484527
3.8119059529764883,917.2093174436018,916.0071858016659,0.1420260146339435,0.0,0.20470135933787015,0.19313444733122537,0.04744449780941399,1237.1716974025512,19830.239403900756
3.8219109554777386,917.3772223030084,916.1628838413529,0.14257129250854927,0.0,0.2048697005520893,0.19296548973340244,0.04744352288519019,1237.0532513774162,19842.287267661595
3.8319159579789894,917.546103653145,916.31983885477,0.14311728687227268,0.0,0.20503826168973888,0.1927963101741516,0.04744254473802952,1236.934648650407,19854.32558204843
3.8419209604802402,917.715939170872,916.4780227974275,0.14366396907063342,0.0,0.20520703384238365,0.19262691754550457,0.04744156334199747,1236.81589540354,19866.35438574136
3.8519259629814906,917.8867063925087,916.6374077680414,0.14421130672642068,0.0,0.20537600694693323,0.19245732189431713,0.04744057867142679,1236.6969986239785,19878.373716819784
3.8619309654827414,918.0583826363753,916.7979659593962,0.14475926331960293,0.0,0.20554516965531616,0.19228753455259615,0.04743959070091869,1236.5779661948789,19890.383612761423
3.8719359679839918,918.2309449172765,916.9596696019639,0.14530779772317334,0.0,0.205714509190484,0.19211756828149598,0.047438599405344756,1236.4588069957576,19902.38411043967
3.8819409704852426,918.4043698523756,917.1224909000078,0.14585686369144657,0.0,0.20588401118766506,0.19194743743006734,0.047437604759849976,1236.3395310131439,19914.37524611905
3.891945972986493,918.5786335578896,917.2864019598753,0.14640640929736753,0.0,0.20605365951979981,0.1917771581098238,0.04743660673985668,1236.2201494622589,19926.35705544864
3.9019509754877437,918.7537115360465,917.4513747101543,0.1469563763155613,0.0,0.20622343610614452,0.19160674838614203,0.04743560532106971,1236.1006749204287,19938.329573453295
3.9119559779889945,918.9295785517661,917.6173808133693,0.14750669954816523,0.0,0.20639332070312377,0.19143622848741276,0.04743460047948297,1235.9811214728675,19950.292834522425
3.921960980490245,919.1062084985828,917.7843915688997,0.14805730609099754,0.0,0.20656329067667437,0.19126562103270253,0.04743359219138739,1235.8615048713684,19962.24687239617
3.9319659829914957,919.2835742534206,917.9523778068389,0.14860811453836664,0.0,0.20673332075555384,0.1910949512784508,0.047432580433380576,1235.741842706258,19974.191720148734
3.941970985492746,919.4616475199647,918.121309772582,0.14915903412588366,0.0,0.2069033827654156,0.1909242473844023,0.047431565182378184,1235.6221545917635,19986.127410168683
3.951975987993997,919.6403986605735,918.2911570020254,0.1497099638120631,0.0,0.20707344534389507,0.19075354069852926,0.04743054641562736,1235.5024623646125,19998.053974135975
3.9619809904952477,919.8197965169257,918.4618881874086,0.15026079130136238,0.0,0.20724347363752813,0.19058286606012267,0.04742952411072223,1235.3827902953017,20009.97144299549
3.971985992996498,919.999808219946,918.6334710340257,0.15081139201369098,0.0,0.207413428982063,0.19041226211949194,0.04742849824562166,1235.2631653109374,20021.879846926906
3.981990995497749,920.1803989899689,918.8058721082847,0.15136162800832728,0.0,0.20758326856862833,0.19024177167180947,0.047427468798669596,1235.1436172279418,20033.77921531064
3.991995997998999,920.3615319286546,918.9790566779241,0.15191134687391739,0.0,0.2077529450993782,0.19007144200147985,0.04742643574861794,1235.024178992089,20045.669576689834
4.00200100050025,920.5431678048536,919.1529885456271,0.15246038060081352,0.0,0.20792240643765914,0.18990132523198971,0.04742539907465223,1234.9048869223673,20057.550958728116
4.012006003001501,920.7252648373158,919.3276298777166,0.1530085444565778,0.0,0.2080915952591579,0.18973147867477744,0.047424358756420225,1234.7857809541551,20069.423388163155
4.022011005502751,920.9077784780815,919.5029410302033,0.15355563589167212,0.0,0.20826044871241461,0.18956196516874024,0.04742331477406351,1234.6669048758708,20081.286890755964
4.0320160080040015,921.0906612013991,919.6788803751308,0.15410143350880065,0.0,0.20842889809908177,0.18939285339999723,0.04742226710825213,1234.5483065518633,20093.14149123609
4.042021010505253,921.2738623041168,919.8554041308826,0.1546456961363506,0.0,0.2085968685864777,0.18922421818935936,0.04742121574022231,1234.43003812279,20104.987213242835
4.052026013006503,921.4573277246611,920.03246620091,0.15518816205359498,0.0,0.2087642789672208,0.18905614073272164,0.04742016065181725,1234.3121561731814,20116.82407926288
4.0620310155077535,921.640999888887,920.2100180261506,0.15572854842236813,0.0,0.20893104148291705,0.18888870877740238,0.047419101825530746,1234.1947218543617,20128.652110564763
4.072036018009005,921.8248175921802,920.3880084572118,0.15626655098624687,0.0,0.20909706173083653,0.18872201671549696,0.04741803924455353,1234.077800949521,20140.471327130934
4.082041020510255,922.0087159281218,920.566383653101,0.15680184410316783,0.0,0.2092622386740306,0.1885561655737903,0.047416972892821936,1233.9614638666887,20152.281747588175
4.092046023011505,922.1926262746431,920.7450870138581,0.1573340811800336,0.0,0.20942646477615967,0.18839126287896218,0.047415902755068455,1233.8457855447853,20164.083389137533
4.102051025512757,922.3764763487969,920.9240591547597,0.15786289557725475,0.0,0.20958962628210856,0.18822742237700388,0.04741482881687369,1233.7308452580478,20175.87626748501
4.112056028014007,922.5601903408567,921.1032379297483,0.15838790204635464,0.0,0.2097516036639762,0.18806476358726223,0.04741375106471892,1233.616726305195,20187.660396774543
4.122061030515257,922.7436891373213,921.2825585112871,0.15890869875381927,0.0,0.20991227224893705,0.18790341117461107,0.047412669486038415,1233.5035155718172,20199.435789524938
4.132066033016508,922.9268906403928,921.4619535328563,0.15942486992856814,0.0,0.2100715030405712,0.18774349412815355,0.047411584069270686,1233.391302957915,20211.20245657274
4.142071035517759,923.109710188598,921.6413532987589,0.15993598914867618,0.0,0.21022916373851255,0.18758514474160515,0.04741049480390748,1233.2801806672067,20222.96040702285
4.152076038019009,923.2920610794246,921.8206860638,0.16044162325526654,0.0,0.21038511995266762,0.18742849739910336,0.04740940168053946,1233.170242360811,20234.70964820908
4.16208104052026,923.473855190087,921.9998783825934,0.16094133684831388,0.0,0.21053923659796545,0.18727368718048423,0.04740830469089736,1233.0615821851002,20246.450185666556
4.172086043021511,923.65500368742,922.1788555251723,0.16143469728388604,0.0,0.21069137944467367,0.1871208483109885,0.047407203827887386,1232.954293691113,20258.182023117803
4.182091045522761,923.8354178124526,922.3575419521873,0.16192128005598144,0.0,0.21084141678803295,0.18697011249164527,0.04740609908561999,1232.8484686708043,20269.90516247412
4.192096048024012,924.0150097199677,922.5358618395577,0.1624006744124289,0.0,0.21098922119051036,0.18682160715703205,0.04740499045943067,1232.744195942672,20281.61960385341
4.202101050525263,924.1936933488325,922.7137396393179,0.1628724890267289,0.0,0.21113467124141314,0.1866754537156687,0.04740387794589233,1232.6415601252875,20293.325345615387
4.212106053026513,924.3713852955397,922.8911006608686,0.16333635752951045,0.0,0.21127765327295467,0.1865317658339531,0.04740276154281831,1232.5406404411724,20305.022384414213
4.222111055527764,924.5480056616752,923.0678716551546,0.16379194369712885,0.0,0.21141806296996057,0.18639064782645148,0.04740164124925603,1232.4415095948152,20316.71071526838
4.232116058029014,924.723478846197,923.2439813836694,0.16423894610245632,0.0,0.21155580681273226,0.18625219321302458,0.047400517065470875,1232.344232766974,20328.390331646813
4.242121060530265,924.897734255538,923.4193611547212,0.16467710205424407,0.0,0.21169080329920525,0.18611648349665313,0.04739938899292091,1232.248866762814,20340.061225569745
4.252126063031516,925.0707069085254,923.5939453110533,0.16510619068516885,0.0,0.21182298390300328,0.1859835872053623,0.047398257034222645,1232.1554593441329,20351.723387722373
4.262131065532766,925.2423379185904,923.7676716555659,0.16552603509197603,0.0,0.2119522937374215,0.18585355922821187,0.047397121193108877,1232.0640487665494,20363.37680757887
4.272136068034017,925.4125748422056,923.9404818052611,0.16593650348009426,0.0,0.2120786919105624,0.18572644046012893,0.04739598147437933,1231.974663531967,20375.021473534143
4.282141070535268,925.5813718893817,924.1123214673307,0.1663375093153397,0.0,0.21220215157243533,0.18560225775477374,0.047394837883845534,1231.8873223557382,20386.65737304052
4.292146073036518,925.748689998751,924.2831406351996,0.16672901053259076,0.0,0.21232265966949251,0.1854810241699655,0.047393690428270886,1231.8020343377486,20398.284492746592
4.302151075537768,925.9144967855408,924.4528937058468,0.16711100789048242,0.0,0.21244021643422673,0.18536273947804502,0.047392539115307296,1231.7187993181624,20409.9028186355
4.31215607803902,926.0787663757602,924.6215395229802,0.16748354259362697,0.0,0.2125548346475246,0.18524739090347972,0.04739138395342961,1231.6376083915566,20421.512336160333
4.32216108054027,926.2414791433328,924.789041353102,0.16784669332359134,0.0,0.2126665387175894,0.18513495404389868,0.047390224951868974,1231.5584445489083,20433.113030374483
4.33216608304152,926.4026213688041,924.9553668031356,0.16820057282857134,0.0,0.21277536362195001,0.18502539392804146,0.047389062120546124,1231.4812834150048,20444.704886055188
4.3421710855427715,926.5621848389266,925.1204876892714,0.16854532422118354,0.0,0.2128813537589107,0.18491866616426708,0.04738789547000569,1231.4060940489726,20456.287887819046
4.352176088044022,926.720166405869,925.284379866954,0.1688811171248027,0.0,0.21298456175200742,0.18481471813605674,0.04738672501135191,1231.3328397775608,20467.862020228393
4.362181090545272,926.8765675233556,925.4470230316595,0.16920814379373433,0.0,0.21308504724634106,0.18471349020564165,0.04738555075618686,1231.2614790340788,20479.42726788817
4.3721860930465235,927.0313937749409,925.6084004993795,0.16952661531351199,0.0,0.21318287572976147,0.18461491689278148,0.0473843727165512,1231.1919661800114,20490.983615532845
4.382191095547774,927.1846544071881,925.7684989747538,0.1698367579666997,0.0,0.21327811740539265,0.18451892800220385,0.04738319090486803,1231.1242522908483,20502.531048103516
4.392196098049024,927.3363618779593,925.9273083136219,0.1701388098286602,0.0,0.21337084613549587,0.18442544967970745,0.047382005333890025,1231.0582858921853,20514.069550815508
4.402201100550275,927.4865314275144,926.0848212855725,0.17043301763794652,0.0,0.2134611384705279,0.1843344053830728,0.0473808160166498,1230.9940136364437,20525.59910921675
4.412206103051526,927.6351806778331,926.2410333409056,0.17071963396841397,0.0,0.21354907277179963,0.18424571675937418,0.04737962296641383,1230.9313809143468,20537.119709237675
4.422211105552776,927.7823292635566,926.3959423853447,0.170998914715156,0.0,0.21363472843149253,0.1841593044249362,0.047378426196639525,1230.8703323985396,20548.63133723317
4.4322161080540265,927.9279984962496,926.5495485648925,0.1712711168941732,0.0,0.21371818519000393,0.18407508864796332,0.047377225720935674,1230.810812519364,20560.133980017315
4.442221110555278,928.072211062347,926.7018540624255,0.17153649674634108,0.0,0.21379952254769632,0.18399298993676774,0.04737602155302587,1230.7527658748393,20571.627624891622
4.452226113056528,928.2149907540685,926.8528629069256,0.17179530812938057,0.0,0.21387881926599436,0.1839129295386509,0.04737481370671498,1230.696137578361,20583.112259667483
4.4622311155577785,928.3563622318649,927.0025807957594,0.17204780117702695,0.0,0.21395615295137654,0.18383482985589242,0.047373602195858386,1230.640873548629,20594.587872683456
4.47223611805903,928.496350816442,927.1510149300259,0.17229422120169913,0.0,0.2140315997149102,0.1837586147861973,0.047372387034333725,1230.5869207469157,20606.054452818094
4.48224112056028,928.6349823080604,927.2981738626592,0.1725348078157073,0.0,0.21410523389958497,0.1836842099953461,0.04737116823601514,1230.5342273670838,20617.51198949885
4.4922461230615305,928.7722828306631,927.4440673587751,0.1727697942459984,0.0,0.2141771278676901,0.18361154312980282,0.047369945814749806,1230.4827429837517,20628.960472707597
4.502251125562781,928.9082786983582,927.5887062676242,0.17299940681817874,0.0,0.21424735184070884,0.1835405439768069,0.0473687197843364,1230.4324186638573,20640.399892983347
4.512256128064032,929.0429963018131,927.7321024054157,0.17322386458678501,0.0,0.21431597378458508,0.18347114457909422,0.04736749015850558,1230.3832070465974,20651.830241422427
4.5222611305652824,929.1764620122512,927.8742684482559,0.17344337909057034,0.0,0.21438305933377638,0.18340327931083275,0.047366256950902234,1230.3350623963347,20663.251509676636
4.532266133066533,929.3087021008861,928.0152178344262,0.1736581542134273,0.0,0.2144486717480801,0.1833368849207863,0.047365020175069224,1230.287940632663,20674.663689949706
4.542271135567784,929.4397426717991,928.1549646752471,0.17386838613352834,0.0,0.2145128718968298,0.18327190054810874,0.04736377984443282,1230.2417993413972,20686.066774992287
4.552276138069034,929.5696096064669,928.2935236738048,0.17407426334528425,0.0,0.21457571826568383,0.18320826771554724,0.047362535972289246,1230.1965977698171,20697.460758095764
4.562281140570285,929.6983285183219,928.4309100508591,0.17427596674059914,0.0,0.21463726698181096,0.18314593030424847,0.04736128857179275,1230.152296809091,20708.845633085144
4.572286143071536,929.8259250454732,928.5671394463001,0.1744736721481761,0.0,0.2146975718513797,0.18308483451626695,0.04736003840625445,1230.108858445173,20720.221394312073
4.582291145572786,929.9524271106557,928.7022277710062,0.17466756654685114,0.0,0.21475668433245754,0.18302492890179312,0.04735879204673052,1230.066242252943,20731.588036677676
4.592296148074037,930.0778602090396,928.8361917030304,0.17485781336538928,0.0,0.2148146535809006,0.1829661643132961,0.04735755106062519,1230.0244128998072,20742.9455556347
4.602301150575287,930.2022487475589,928.9690482780727,0.17504456388360018,0.0,0.21487152662176487,0.18290849373393928,0.04735631537689828,1229.9833376801687,20754.293947140653
4.612306153076538,930.3256167381647,929.1008147506933,0.17522796277209354,0.0,0.21492734842787883,0.18285187219899138,0.04735508492611672,1229.9429853174988,20765.633207645264
4.622311155577789,930.4479877880992,929.231508552328,0.1754081483302289,0.0,0.2149821619939507,0.18279625672171465,0.047353859640147655,1229.9033259128776,20776.96333408054
4.632316158079039,930.5693850934055,929.3611472529597,0.1755852527311664,0.0,0.21503600841257217,0.18274160621735813,0.04735263945215985,1229.8643308920023,20788.28432385079
4.64232116058029,930.6898314350191,929.4897485261395,0.1757594022695682,0.0,0.21508892695104825,0.1826878814263246,0.04735142429662335,1229.82597295162,20799.59617482255
4.652326163081541,930.8093491770089,929.6173301170658,0.17593071760920914,0.0,0.21514095512820156,0.18263504483736354,0.047350214109307585,1229.788226005985,20810.898885314524
4.662331165582791,930.9279602665852,929.743909813453,0.17609931402822812,0.0,0.21519212879044775,0.18258306061149338,0.0473490088272783,1229.75106513382,20822.192454087563
4.672336168084042,931.0456862355651,929.8695054189561,0.1762653016602974,0.0,0.2152424821866073,0.1825318945071878,0.04734780838889302,1229.7144665261662,20833.47688033469
4.682341170585293,931.1625482030238,929.9941347289289,0.17642878573029463,0.0,0.2152920480410137,0.1824815138072656,0.04734661273379563,1229.678407435419,20844.752163671234
4.692346173086543,931.2785668789082,930.1178155083271,0.17658986678347197,0.0,0.2153408576246072,0.18243188724779588,0.04734542180290984,1229.642866125773,20856.018304125082
4.702351175587793,931.3937625684273,930.2405654715766,0.17674864090735717,0.0,0.2153889408237748,0.18238298494925628,0.047344235538431804,1229.6078218252344,20867.27530212703
4.712356178089045,931.5081551770567,930.3624022642485,0.17690519994582496,0.0,0.21543632620676378,0.18233477835011902,0.04734305388382187,1229.5732546793313,20878.52315850127
4.722361180590295,931.6217642160301,930.4833434463961,0.17705963170502104,0.0,0.215483041087569,0.18228724014296258,0.047341876783795735,1229.5391457065837,20889.761874456082
4.732366183091545,931.7346088082046,930.6034064774202,0.17721202015090265,0.0,0.21552911158722085,0.18224034421318316,0.047340704184314734,1229.5054767557858,20900.99145157464
4.742371185592797,931.8467076942062,930.7226087023435,0.17736244559830616,0.0,0.21557456269244624,0.18219406558033366,0.04733953603257577,1229.472230465124,20912.211891805942
4.752376188094047,931.9580792387885,930.8409673393872,0.1775109848916347,0.0,0.21561941831173076,0.18214838034206088,0.04733837227700053,1229.4393902231016,20923.42319745603
4.762381190595297,932.0687414373359,930.9584994687468,0.17765771157720106,0.0,0.21566370132879345,0.18210326562063098,0.04733721286722429,1229.4069401312745,20934.62537117922
4.7723861930965485,932.1787119224639,931.0752220224759,0.17780269606741309,0.0,0.21570743365353193,0.18205869951198442,0.047336057754084324,1229.374864968746,20945.818415969614
4.782391195597799,932.2880079706704,931.1911517753992,0.17794600579699385,0.0,0.21575063627049718,0.18201466103726138,0.04733490688960786,1229.3431501583864,20957.002335152763
4.792396198099049,932.3966465090043,931.3063053369671,0.1780877053714317,0.0,0.21579332928495892,0.1819711300967369,0.047333760226999776,1229.3117817347324,20968.177132377463
4.8024012006003,932.5046441217249,931.4206991439899,0.17822785670800015,0.0,0.21583553196666638,0.18192808742606031,0.04733261772062992,1229.2807463134939,20979.342811607745
4.812406203101551,932.6120170569329,931.5343494541862,0.17836651916960103,0.0,0.21587726279138375,0.1818855145547207,0.047331479326020255,1229.2500310626117,20990.499377115055
4.822411205602801,932.7187812331446,931.6472723404763,0.17850374969165975,0.0,0.21591853948027045,0.18184339376666722,0.04733034499983169,1229.2196236748182,21001.64683347053
4.832416208104052,932.8249522458083,931.759483685976,0.17863960290248673,0.0,0.21595937903723497,0.18180170806295584,0.04732921469985085,1229.189512341612,21012.78518553755
4.842421210605303,932.9305453737452,931.8709991796338,0.17877413123731345,0.0,0.21599979778432715,0.1817604411263581,0.047328088384976465,1229.1596857285983,21023.914438464322
4.852426213106553,933.0355755855026,931.9818343124634,0.17890738504631767,0.0,0.21603981139526604,0.1817195772878343,0.047326966015205835,1229.130132952131,21035.03459767672
4.862431215607804,933.1400575456189,932.092004374329,0.17903941269695198,0.0,0.2160794349272008,0.18167910149477332,0.04732584755162107,1229.1008435571862,21046.14566887126
4.872436218109055,933.2440056207937,932.2015244512422,0.17917026067083883,0.0,0.21611868285078636,0.1816389992809183,0.04732473295637532,1229.0718074964097,21057.247658008193
4.882441220610305,933.3474338859568,932.3104094231306,0.17929997365550374,0.0,0.21615756907865796,0.18159925673789298,0.04732362219267877,1229.0430151102832,21068.340571304776
4.8924462231115555,933.4503561302392,932.4186739620482,0.17942859463126426,0.0,0.21619610699240333,0.1815598604882309,0.04732251522478483,1229.014457108335,21079.424415228714
4.902451225612806,933.5527858628342,932.5263325307831,0.17955616495342927,0.0,0.21623430946807995,0.18152079765985912,0.047321412017976114,1228.986124551366,21090.499196491714
4.912456228114057,933.6547363187623,932.6333993818475,0.17968272443017433,0.0,0.2162721889003913,0.18148205586192365,0.04732031253855049,1228.9580088346124,21101.56492204317
4.9224612306153075,933.7562204645317,932.7398885568111,0.1798083113962852,0.0,0.21630975722558118,0.18144362316189575,0.04731921675380709,1228.9301016718005,21112.62159906405
4.932466233116558,933.8572510036922,932.845813885953,0.1799329627829409,0.0,0.21634702594309982,0.1814054880639079,0.0473181246320324,1228.902395080056,21123.669234960835
4.942471235617809,933.9578403822877,932.9511889882087,0.18005671418382851,0.0,0.21638400613613187,0.18136763948822682,0.047317036142486335,1228.874881365611,21134.70783735968
4.9524762381190595,934.0580007942052,933.056027271387,0.18017959991774632,0.0,0.21642070849103495,0.1813300667518159,0.0473159512553884,1228.8475531102654,21145.737414100644
4.96248124062031,934.1577441864239,933.1603419326383,0.18030165308790475,0.0,0.2164571433157541,0.18129275954992302,0.0473148699419039,1228.8204031585683,21156.757973232052
4.972486243121561,934.2570822641649,933.2641459591513,0.18042290563812324,0.0,0.216493320557273,0.18125570793863002,0.04731379217413018,1228.793424605663,21167.769523005052
4.982491245622811,934.3560264959435,933.3674521290621,0.18054338840607642,0.0,0.21652924981814978,0.18121890231831866,0.047312717925083105,1228.766610785778,21178.772071868192
4.992496248124062,934.4545881185217,933.4702730125546,0.1806631311737478,0.0,0.21656494037218674,0.18118233341800224,0.047311647168683364,1228.7399552613156,21189.765628462206
5.002501250625312,934.5527781417694,933.5726209731388,0.180782162715288,0.0,0.2166004011792946,0.18114599228046302,0.04731057987974318,1228.7134518125063,21200.750201614876
5.012506253126563,934.65060735343,933.674508169092,0.18090051084237024,0.0,0.21663564089958048,0.18110987024816538,0.04730951603395287,1228.6870944276006,21211.72580033601
5.022511255627814,934.7480863237929,933.7759465550436,0.18101820244721376,0.0,0.2166706679067119,0.18107395894989356,0.047308455607867735,1228.6608772935683,21222.692433812565
5.032516258129064,934.8452254102812,933.8769478837,0.18113526354342957,0.0,0.21670549030060562,0.18103825028806414,0.04730739857889487,1228.634794787266,21233.650111403833
5.042521260630315,934.9420347619433,933.9775237076848,0.18125171930473472,0.0,0.21674011591945494,0.18100273642670028,0.04730634492528035,1228.6088414670685,21244.598842636784
5.052526263131566,935.0385243238619,934.0776853814917,0.18136759410173045,0.0,0.216774552351156,0.180967409780007,0.04730529462609629,1228.5830120649152,21255.53863720149
5.062531265632816,935.1347038414762,934.1774440635362,0.18148291153681378,0.0,0.21680880694415527,0.18093226300152496,0.04730424766122822,1228.5573014787642,21266.469504946665
5.072536268134067,935.2305828648231,934.2768107182986,0.18159769447735385,0.0,0.2168428868177583,0.18089728897382348,0.047303204011362586,1228.5317047654175,21277.39145587529
5.082541270635318,935.326170752692,934.3757961185447,0.1817119650871705,0.0,0.21687679887191175,0.18086248079871955,0.04730216365797433,1228.506217133717,21288.304500140344
5.092546273136568,935.4214766767028,934.4744108476169,0.181825744856499,0.0,0.2169105497965156,0.18082783178796746,0.04730112658331466,1228.4808339380652,21299.20864804066
5.102551275637818,935.5165096253002,934.5726653017882,0.18193905463042587,0.0,0.21694414608026089,0.18079333545442247,0.047300092770399066,1228.4555506722775,21310.103910016856
5.11255627813907,935.6112784076718,934.6705696926717,0.1820519146359516,0.0,0.2169775940190413,0.18075898550363056,0.047299062202995276,1228.4303629637323,21320.99029664734
5.12256128064032,935.7057916575911,934.768134049677,0.1821643445077364,0.0,0.21701089972395582,0.18072477582582722,0.04729803486561166,1228.4052665678041,21331.86781864445
5.13256628314157,935.8000578371815,934.8653682225062,0.18227636331256847,0.0,0.21704406912891533,0.1806907004883322,0.04729701074348556,1228.3802573625746,21342.736486850637
5.142571285642822,935.8940852406112,934.9622818836896,0.18238798957269184,0.0,0.21707710799789487,0.18065675372829912,0.04729598982257189,1228.3553313437878,21353.596312234804
5.152576288144072,935.9878819977096,935.0588845311439,0.18249924128796396,0.0,0.2171100219318226,0.18062292994582727,0.04729497208953193,1228.3304846200615,21364.447305888643
5.162581290645322,936.081456077518,935.1551854907601,0.1826101359570006,0.0,0.21714281637515467,0.18058922369738847,0.04729395753172223,1228.305713408317,21375.289479023133
5.172586293146573,936.1748152917665,935.2511939190065,0.18272069059729085,0.0,0.21717549662213034,0.18055562968957345,0.04729294613718372,1228.2810140294268,21386.12284296508
5.182591295647824,936.2679672982817,935.3469188055457,0.18283092176436622,0.0,0.21720806782273325,0.18052214277313178,0.04729193789463095,1228.2563829040753,21396.947409153756
5.192596298149074,936.3609196043299,935.4423689758647,0.18294084557008386,0.0,0.21724053498837767,0.1804887579372868,0.04729093279344156,1228.2318165488034,21407.763189137597
5.202601300650325,936.4536795698907,935.5375530939078,0.18305047770005495,0.0,0.21727290299732974,0.1804554703043161,0.047289930823645875,1228.207311572242,21418.57019457101
5.212606303151576,936.546254410865,935.6324796647106,0.18315983343024225,0.0,0.21730517659987017,0.18042227512438982,0.0472889319759167,1228.1828646715228,21429.36843721123
5.222611305652826,936.6386512022201,935.7271570370366,0.1832689276428272,0.0,0.21733736042323057,0.18038916777063577,0.047287936241559275,1228.1584726288513,21440.15792891524
5.232616308154077,936.7308768810748,935.8215934060094,0.1833777748413437,0.0,0.21736945897630186,0.1803561437344323,0.04728694361250138,1228.1341323082327,21450.938681636828
5.242621310655328,936.8229382497162,935.9157968157342,0.1834863891651057,0.0,0.21740147665412346,0.1803231986209203,0.047285954081283665,1228.1098406523531,21461.710707423634
5.252626313156578,936.9148419785596,936.0097751619116,0.18359478440300653,0.0,0.21743341774217728,0.18029032814471058,0.047284967641050064,1228.085594679599,21472.474018414297
5.262631315657829,937.0065946090468,936.103536194439,0.18370297400667798,0.0,0.217465286420483,0.18025752812578977,0.0472839842855385,1228.0613914812102,21483.228626835702
5.272636318159079,937.0982025564846,936.1970875199947,0.18381097110307043,0.0,0.21749708676751334,0.18022479448560613,0.04728300400907161,1228.0372282185624,21493.974545000274
5.28264132066033,937.1896721128276,936.2904366046088,0.18391878850647547,0.0,0.21752882276393642,0.18019212324332876,0.0472820268065478,1228.0131021205677,21504.71178530328
5.292646323161581,937.2810094494025,936.3835907762135,0.18402643873002533,0.0,0.2175604982961953,0.18015951051226867,0.047281052673432314,1227.9890104811884,21515.4403602203
5.302651325662831,937.3722206195772,936.4765572271725,0.18413393399667324,0.0,0.21759211715992652,0.18012695249646207,0.04728008160574855,1227.9649506570652,21526.160282304674
5.312656328164082,937.463311561375,936.5693430167902,0.1842412862497134,0.0,0.21762368306323546,0.1800944454873956,0.04727911360006957,1227.9409200652415,21536.87156418506
5.3226613306653325,937.5542881000314,936.6619550737939,0.1843485071628111,0.0,0.21765519962981952,0.18006198586088445,0.04727814865350966,1227.9169161809978,21547.574218563026
5.332666333166583,937.6451559505045,936.754400198797,0.18445560814965759,0.0,0.21768667040197492,0.18002957007406697,0.04727718676371616,1227.8929365357617,21558.268258210686
5.342671335667834,937.7359207199295,936.846685066731,0.18456260037316957,0.0,0.2177180988434616,0.1799971946625404,0.04727622792886141,1227.8689787151222,21568.95369596845
5.3526763381690845,937.826587910017,936.9388162292507,0.18466949475428604,0.0,0.21774948834224328,0.17996485623762212,0.047275272147634814,1227.8450403569284,21579.63054474277
5.362681340670335,937.9171629194107,937.0308001171151,0.1847763019804396,0.0,0.21778084221312638,0.1799325514837118,0.047274319419235156,1227.8211191494563,21590.298817503986
5.372686343171585,938.0076510459896,937.1226430425367,0.18488303251364435,0.0,0.21781216370027953,0.17990027715577275,0.047273369743363,1227.7972128296624,21600.958527284165
5.3826913456728365,938.0980574891237,937.214351201503,0.18498969659824369,0.0,0.21784345597964755,0.17986803007691923,0.047272423120213146,1227.7733191815105,21611.609687175074
5.392696348174087,938.1883873518806,937.3059306760662,0.18509630426834234,0.0,0.21787472216126738,0.1798358071361013,0.04727147955046754,1227.749436034362,21622.252310326137
5.402701350675337,938.2786456431879,937.3973874366042,0.1852028653549405,0.0,0.21790596529149114,0.17980360528588293,0.047270539035287946,1227.725561261437,21632.88640994246
5.412706353176588,938.368837279948,937.4887273440481,0.18530938949276485,0.0,0.21793718835511497,0.1797714215403138,0.04726960157630905,1227.7016927783372,21643.511999282924
5.422711355677839,938.4589670891065,937.5799561520789,0.18541588612681328,0.0,0.2179683942774192,0.17973925297289037,0.04726866717563161,1227.6778285416308,21654.129091658295
5.432716358179089,938.5490398096763,937.6710795092915,0.18552236451864046,0.0,0.21799958592612748,0.17970709671459764,0.04726773583581568,1227.653966547495,21664.73770042942
5.44272136068034,938.6390600947242,937.7621029613289,0.18562883375241765,0.0,0.21803076611329605,0.17967494995202068,0.04726680755987413,1227.6301048304056,21675.33783900542
5.452726363181591,938.729032513308,937.8530319529813,0.1857353027407117,0.0,0.21806193759711553,0.17964280992554396,0.04726588235126614,1227.6062414618893,21685.92952084196
5.462731365682841,938.8189615523731,937.9438718302528,0.18584178023004147,0.0,0.21809310308364346,0.1796106739276193,0.047264960213890934,1227.5823745493217,21696.51275943957
5.4727363681840915,938.9088516186118,938.0346278423967,0.18594827480623544,0.0,0.21812426522847495,0.17957853930109643,0.04726404115208165,1227.55850223477,21707.087568341947
5.482741370685343,938.9987070402774,938.1253051439168,0.18605479489955104,0.0,0.21815542663833948,0.17954640343762687,0.047263125170599246,1227.5346226938868,21717.65396113441
5.492746373186593,939.0885320689623,938.2159087965357,0.18616134878961313,0.0,0.2181865898726412,0.17951426377612448,0.04726221227462664,1227.5107341348432,21728.211951442252
5.5027513756878434,939.1783308813361,938.3064437711308,0.18626794461015123,0.0,0.21821775744493654,0.17948211780128873,0.0472613024697629,1227.4868347973052,21738.761552929293
5.512756378189095,939.2681075808467,938.3969149496378,0.18637459035356596,0.0,0.21824893182435898,0.17944996304218058,0.047260395762017675,1227.4629229514446,21749.302779296315
5.522761380690345,939.3578661993816,938.4873271269198,0.1864812938752956,0.0,0.2182801154369812,0.17941779707086125,0.04725949215780556,1227.4389968970002,21759.83564427962
5.532766383191595,939.4476106988977,938.5776850126075,0.18658806289805,0.0,0.21831131066713655,0.1793856175010715,0.047258591663940766,1227.4150549623575,21770.360161649663
5.542771385692847,939.5373449730087,938.6679932329016,0.18669490501583527,0.0,0.21834251985867456,0.17935342198697662,0.047257694287631796,1227.3910955036843,21780.876345209588
5.552776388194097,939.6270728485434,938.7582563323491,0.1868018276978824,0.0,0.21837374531618756,0.17932120822194106,0.0472568000364763,1227.3671169040758,21791.384208793945
5.562781390695347,939.7167980870687,938.8484787755838,0.18690883829239982,0.0,0.21840498930618146,0.1792889739373577,0.047255908918456,1227.3431175727508,21801.88376626734
5.572786393196598,939.8065243863737,938.9386649490342,0.1870159440301713,0.0,0.21843625405819916,0.17925671690152564,0.04725502094193173,1227.3190959442682,21812.375031523166
5.582791395697849,939.8962553819268,939.0288191626025,0.18712315202804594,0.0,0.21846754176591013,0.17922443491856122,0.04725413611563869,1227.2950504777762,21822.858018482355
5.592796398199099,939.9859946482995,939.1189456513122,0.1872304692923014,0.0,0.21849885458816018,0.17919212582734878,0.04725325444868156,1227.2709796562847,21833.332741092152
5.60280140070035,940.0757457005544,939.2090485769213,0.18733790272185052,0.0,0.21853019464997295,0.1791597875005398,0.04725237595053006,1227.2468819859725,21843.799213324946
5.612806403201601,940.1655119956074,939.2991320295098,0.18744545911137056,0.0,0.21856156404352697,0.1791274178435766,0.047251500631014326,1227.2227559955115,21854.25744917711
5.622811405702851,940.2552969335542,939.3892000290323,0.18755314515428265,0.0,0.21859296482908638,0.1790950147937624,0.04725062850032052,1227.198600235422,21864.70746266783
5.632816408204102,940.3451038589757,939.479256526846,0.18766096744568064,0.0,0.21862439903591538,0.1790625763193471,0.04724975956898654,1227.1744132774418,21875.149267838107
5.642821410705353,940.4349360622025,939.569305407202,0.1877689324850697,0.0,0.21865586866313394,0.17903010041867237,0.047248893847897794,1227.1501937139321,21885.58287874958
5.652826413206603,940.5247967805609,939.6593504887137,0.18787704667909105,0.0,0.2186873756805689,0.1789975851193213,0.04724803134828309,1227.125940157291,21896.008309483565
5.662831415707854,940.614689199585,939.7493955257929,0.1879853163440974,0.0,0.2187189220295586,0.178965028477314,0.047247172081710635,1227.1016512393956,21906.425574139983
5.672836418209104,940.7046164542039,939.839444210058,0.18809374770865847,0.0,0.2187505096237356,0.17893242857632566,0.04724631606008404,1227.077325611061,21916.834686836424
5.682841420710355,940.7945816299047,939.9295001717159,0.18820234691598922,0.0,0.21878214034978574,0.1788997835269281,0.04724546329563857,1227.0529619415167,21927.235661707135
5.692846423211606,940.884587763861,940.019566980913,0.18831112002625225,0.0,0.2188138160681673,0.1788670914658709,0.04724461380093735,1227.0285589179082,21937.62851290212
5.702851425712856,940.974637846045,940.1096481490616,0.18842007301882568,0.0,0.21884553861382008,0.17883435055537303,0.04724376758886771,1227.0041152448061,21948.013254586203
5.712856428214107,941.0647348203112,940.1997471301387,0.18852921179448448,0.0,0.21887730979684702,0.17880155898244168,0.0472429246726376,1226.9796296437382,21958.389900938153
5.722861430715358,941.1548815854534,940.2898673219571,0.18863854217748569,0.0,0.21890913140316604,0.178768714958221,0.04724208506577212,1226.9551008527346,21968.758466149808
5.732866433216608,941.2450809962398,940.3800120674125,0.18874806991760557,0.0,0.2189410051951469,0.17873581671735553,0.04724124878211013,1226.9305276258913,21979.118964425237
5.742871435717859,941.3353358644245,940.4701846557017,0.18885780069208977,0.0,0.2189729329122208,0.17870286251738118,0.04724041583580085,1226.905908732947,21989.471409979917
5.7528764382191095,941.4256489597348,940.5603883235193,0.18896774010755765,0.0,0.21900491627147597,0.1786698506381303,0.047239586241300716,1226.881242958872,21999.815817039922
5.76288144072036,941.5160230108385,940.6506262562265,0.1890778937018293,0.0,0.2190369569682287,0.17863677938116068,0.04723876001337008,1226.856529103474,22010.152199841174
5.77288644322161,941.6064607062873,940.7409015889976,0.18918826694570423,0.0,0.21906905667657967,0.1786036470692,0.04723793716707025,1226.8317659810132,22020.48057262864
5.7828914457228615,941.6969646954375,940.8312174079413,0.18929886524466205,0.0,0.21910121704994592,0.17857045204561428,0.04723711771776034,1226.8069524198356,22030.800949655644
5.792896448224112,941.7875375893545,940.9215767511976,0.18940969394053755,0.0,0.21913343972158447,0.17853719267388451,0.04723630168109444,1226.7820872620107,22041.11334518309
5.802901450725362,941.8781819616917,941.0119826100151,0.18952075831311868,0.0,0.21916572630509226,0.17850386733710705,0.04723548907301864,1226.7571693629861,22051.417773478828
5.8129064532266135,941.9689003495494,941.1024379297997,0.18963206358168477,0.0,0.21919807839488734,0.17847047443751318,0.04723467990976826,1226.732197591256,22061.71424881692
5.822911455727864,942.0596952543198,941.192945611146,0.18974361490653896,0.0,0.2192304975666881,0.17843701239598997,0.047233874207865095,1226.7071708280291,22072.002785476987
5.832916458229114,942.1505691425042,941.2835085108433,0.1898554173904255,0.0,0.21926298537795688,0.17840347965163716,0.04723307198411479,1226.682087966924,22082.2833977436
5.8429214607303654,942.2415244465232,941.3741294428654,0.18996747607999753,0.0,0.21929554336835877,0.17836987466130866,0.04723227325560414,1226.6569479136506,22092.556099905585
5.852926463231616,942.3325635654938,941.4648111793313,0.1900797959671252,0.0,0.21932817306017136,0.17833619589920333,0.04723147803969857,1226.6317495857274,22102.820906255496
5.862931465732866,942.4236888660042,941.5555564514532,0.19019238199027377,0.0,0.21936087595871542,0.1783024418564343,0.04723068635403972,1226.6064919121864,22113.07783108894
5.8729364682341165,942.514902682857,941.6463679504569,0.19030523903574706,0.0,0.2193936535527444,0.17826861104064018,0.04722989821654291,1226.5811738333002,22123.32688870404
5.882941470735368,942.6062073198054,941.7372483284884,0.19041837193895722,0.0,0.21942650731484156,0.17823470197558813,0.047229113645394824,1226.5557943003125,22133.568093400874
5.892946473236618,942.6976050502669,941.828200199496,0.19053178548562202,0.0,0.2194594387017946,0.17820071320079947,0.047228332659051214,1226.5303522751753,22143.801459480914
5.9029514757378685,942.7890981180236,941.9192261400963,0.19064548441293774,0.0,0.2194924491549629,0.17816664327118284,0.047227555276234616,1226.504846730299,22154.027001246493
5.91295647823912,942.8806887379085,942.0103286904224,0.19075947341073776,0.0,0.21952554010063988,0.17813249075667215,0.04722678151593218,1226.479276648299,22164.24473300029
5.92296148074037,942.9723790964681,942.1015103549478,0.19087375712256335,0.0,0.21955871295038829,0.17809825424189143,0.047226011397393484,1226.4536410217663,22174.454669044837
5.9329664832416205,943.064171352621,942.1927736033003,0.19098834014677157,0.0,0.21959196910138687,0.17806393232580883,0.04722524494012849,1226.4279388530288,22184.656823682002
5.942971485742872,943.1560676382927,942.2841208710522,0.19110322703755603,0.0,0.21962530993674984,0.17802952362141689,0.04722448216390543,1226.4021691539288,22194.851211212543
5.952976488244122,943.2480700590402,942.375554560495,0.19121842230596336,0.0,0.21965873682584514,0.17799502675541504,0.047223723088748934,1226.3763309456046,22205.03784593563
5.962981490745372,943.3401806946605,942.4670770413973,0.1913339304208772,0.0,0.2196922511246024,0.17796044036790168,0.047222967734937976,1226.3504232582782,22215.216742148365
5.972986493246623,943.4324015997892,942.558690651748,0.19144975580999027,0.0,0.21972585417581705,0.1779257631120704,0.047222216123004,1226.3244451310443,22225.38791414541
5.982991495747874,943.5247348044786,942.6503976984782,0.19156590286070668,0.0,0.2197595473094329,0.17789099365392733,0.04722146827372915,1226.2983956116764,22235.551376218504
5.992996498249124,943.6171823147706,942.742200458173,0.19168237592106785,0.0,0.21979333184283215,0.177856130672002,0.047220724208144396,1226.2722737564268,22245.707142656072
6.003001500750375,943.70974611325,942.8341011777641,0.19179917930062448,0.0,0.21982720908110795,0.1778211728570744,0.04721998394752774,1226.246078629837,22255.855227742813
6.013006503251626,943.8024281595926,942.9261020752089,0.19191631727130712,0.0,0.2198611803173372,0.1777861189119029,0.04721924751340261,1226.2198093045515,22265.995645759318
6.023011505752876,943.8952303910928,943.0182053401533,0.19203379406824464,0.0,0.21989524683283668,0.17775096755096784,0.04721851492753612,1226.1934648611386,22276.128410981695
6.033016508254127,943.9881547231844,943.1104131345813,0.1921516138905841,0.0,0.21992940989741971,0.17771571750021556,0.04721778621193743,1226.1670443879166,22286.25353768118
6.043021510755377,944.0812030499523,943.2027275934503,0.19226978090229752,0.0,0.21996367076964865,0.17768036749680582,0.0472170613888562,1226.140546980776,22296.371040123788
6.053026513256628,944.174377244623,943.2951508253099,0.192388299232924,0.0,0.21999803069706717,0.1776449162888797,0.047216340480781015,1226.1139717430217,22306.480932569986
6.063031515757879,944.2676791600549,943.3876849129102,0.1925071729783409,0.0,0.22003249091644195,0.17760936263531857,0.04721562351043784,1226.087317785205,22316.5832292743
6.073036518259129,944.361110629211,943.4803319137959,0.19262640620149227,0.0,0.22006705265399026,0.1775737053055159,0.047214910500788625,1226.060584224968,22326.677944485065
6.08304152076038,944.4546734656268,943.5730938608876,0.19274600293312283,0.0,0.22010171712561,0.1775379430791481,0.0472142014750298,1226.0337701868818,22336.765092444028
6.093046523261631,944.5483694638599,943.6659727630488,0.1928659671724476,0.0,0.22013648553708914,0.17750207474596486,0.04721349645659088,1226.0068748023061,22346.84468738609
6.103051525762881,944.6422003999379,943.7589706056422,0.19298630288786076,0.0,0.2201713590843278,0.17746609910556743,0.047212795469133095,1225.979897209232,22356.916743538975
6.113056528264132,944.7361680317913,943.8520893510731,0.19310701401758232,0.0,0.2202063389535405,0.1774300149672066,0.04721209853654815,1225.9528365521455,22366.981275122977
6.123061530765383,944.8302740996771,943.9453309393207,0.1932281044703148,0.0,0.22024142632146165,0.17739382114957697,0.047211405682956745,1225.9256919818843,22377.038296350627
6.133066533266633,944.9245203265951,944.0386972884573,0.19334957812587147,0.0,0.22027662235554235,0.17735751648062073,0.04721071693270746,1225.8984626555,22387.087821426463
6.143071535767883,945.0189084186975,944.1321902951604,0.19347143883582346,0.0,0.22031192821415285,0.1773210997973253,0.04721003231037546,1225.8711477361237,22397.12986454673
6.153076538269135,945.113440065684,944.2258118352069,0.19359369042408683,0.0,0.22034734504676612,0.17728456994553968,0.04720935184076127,1225.8437463928326,22407.16443989915
6.163081540770385,945.2081169411897,944.3195637639609,0.19371633668750676,0.0,0.22038287399414092,0.17724792577979154,0.04720867554888961,1225.81625780053,22417.191561662647
6.173086543271635,945.302940703169,944.4134479168509,0.19383938139646728,0.0,0.22041851618851235,0.17721116616309707,0.04720800346000827,1225.7886811398084,22427.21124400713
6.1830915457728866,945.3979129942678,944.5074661098358,0.19396282829544448,0.0,0.22045427275376522,0.1771742899667874,0.047207335599586966,1225.761015596833,22437.223501093238
6.193096548274137,945.4930354421845,944.6016201398586,0.1940866811035529,0.0,0.2204901448056048,0.1771372960703384,0.047206671993316233,1225.7332603632233,22447.228347072112
6.203101550775387,945.5883096600321,944.6959117852952,0.19421094351511742,0.0,0.2205261334517358,0.17710018336119118,0.04720601266710642,1225.705414635928,22457.225796085204
6.2131065532766385,945.6837372466838,944.7903428063893,0.19433561920018602,0.0,0.22056223979202283,0.1770629507345924,0.04720535764708654,1225.6774776171167,22467.21586226402
6.223111555777889,945.7793197871167,944.8849149456802,0.19446071180506436,0.0,0.22059846491865762,0.1770255970934267,0.04720470695960339,1225.649448514062,22477.19855972994
6.233116558279139,945.8750588527464,944.9796299284201,0.19458622495282646,0.0,0.22063480991631884,0.17698812134805725,0.04720406063122043,1225.6213265390304,22487.173902594022
6.24312156078039,945.9709560017552,945.0744894629848,0.19471216224382984,0.0,0.22067127586233298,0.17695052241616482,0.047203418688716914,1225.5931109091712,22497.141904956792
6.253126563281641,946.0670127794108,945.1694952412714,0.19483852725618356,0.0,0.22070786382682112,0.1769127992226011,0.047202781159086916,1225.5648008464136,22507.102580908075
6.263131565782891,946.1632307183828,945.2646489390919,0.19496532354625398,0.0,0.22074457487285679,0.17687495069923118,0.04720214806953836,1225.5363955773605,22517.055944526786
6.273136568284142,946.2596113390509,945.3599522165567,0.1950925546491441,0.0,0.22078141005661597,0.17683697578478305,0.0472015194474922,1225.5078943331825,22527.002009880795
6.283141570785393,946.3561561498058,945.4554067184504,0.1952202240791546,0.0,0.22081837042752128,0.1767988734247043,0.04720089532058151,1225.4792963495186,22536.940791026725
6.293146573286643,946.4528666473403,945.5510140745959,0.19534833533021645,0.0,0.22085545702837733,0.17676064257102606,0.047200275716650614,1225.450600866383,22546.8723020098
6.3031515757878935,946.5497443169471,945.6467759002201,0.19547689187639736,0.0,0.22089267089552886,0.17672228218220554,0.04719966066375423,1225.4218071280563,22556.79655686369
6.313156578289145,946.6467906327978,945.742693796303,0.19560589717231858,0.0,0.2209300130589911,0.17668379122299527,0.04719905019015675,1225.3929143829941,22566.71356961037
6.323161580790395,946.7440070582174,945.8387693499212,0.19573535465356212,0.0,0.22096748454257722,0.17664516866431607,0.047198444324331325,1225.363921883741,22576.623354259937
6.3331665832916455,946.8413950459638,945.9350041345892,0.19586526773715204,0.0,0.22100508636404861,0.1766064134831067,0.047197843094959134,1225.3348288868233,22586.525924810525
6.343171585792896,946.9389560384891,946.0313997105881,0.19599563982194257,0.0,0.2210428195352362,0.17656752466220244,0.047197246530928647,1225.3056346526694,22596.42129524811
6.353176588294147,947.0366914682028,946.1279576252902,0.1961264742890381,0.0,0.22108068506217168,0.17652850119020416,0.047196654661334846,1225.276338445515,22606.30947954642
6.3631815907953975,947.1346027577295,946.2246794134765,0.19625777450221088,0.0,0.2211186839452182,0.17648934206134753,0.04719606751547852,1225.2469395333155,22616.190491666803
6.373186593296648,947.232691320159,946.3215665976479,0.19638954380830026,0.0,0.2211568171791948,0.17645004627537866,0.04719548512286556,1225.2174371876583,22626.064345558076
6.383191595797899,947.3309585592923,946.418620688329,0.19652178553759353,0.0,0.22119508575349578,0.17641061283743487,0.0471949075132062,1225.1878306836813,22635.931055156456
6.393196598299149,947.429405869889,946.5158431843693,0.1966545030042672,0.0,0.22123349065222817,0.17637104075790713,0.04719433471641444,1225.158119299977,22645.79063438541
6.4032016008004,947.5280346378952,946.6132355732316,0.196787699506697,0.0,0.2212720328543087,0.17633132905234303,0.04719376676260731,1225.1283023185263,22655.64309715556
6.413206603301651,947.6268462406834,946.7107993312816,0.196921378327896,0.0,0.22131071333360075,0.17629147674131013,0.04719320368210422,1225.0983790246016,22665.488457364594
6.423211605802901,947.7258420472797,946.8085359240686,0.19705554273586823,0.0,0.22134953305902472,0.17625148285028544,0.04719264550542639,1225.068348706694,22675.326728897147
6.433216608304152,947.8250234185851,946.9064468065997,0.19719019598397064,0.0,0.22138849299467084,0.17621134640954264,0.04719209226329615,1225.0382106564314,22685.157925624706
6.443221610805402,947.9243917076004,947.0045334236113,0.19732534131130536,0.0,0.2214275940999219,0.17617106645402933,0.047191543986636365,1225.0079641684956,22694.982061405542
6.453226613306653,948.0239482596348,947.1027972098321,0.19746098194302525,0.0,0.22146683732954872,0.17613064202327192,0.04719100070656985,1224.977608540556,22704.799150084607
6.463231615807904,948.1236944125269,947.2012395902444,0.19759712109075506,0.0,0.22150622363384118,0.176090072161244,0.04719046245441876,1224.947143073179,22714.60920549344
6.473236618309154,948.2236314968447,947.2998619803378,0.19773376195288817,0.0,0.2215457539587013,0.17604935591627374,0.04718992926170403,1224.9165670697626,22724.412241450136
6.483241620810405,948.3237608360959,947.398665786359,0.19787090771496083,0.0,0.22158542924575975,0.17600849234092725,0.04718940116014483,1224.885879836456,22734.208271759202
6.493246623311656,948.4240837469233,947.4976524055553,0.19800856154997412,0.0,0.22162525043247655,0.17596748049190797,0.04718887818165798,1224.855080682091,22743.99731021154
6.503251625812906,948.5246015393053,947.5968232264166,0.19814672661873642,0.0,0.22166521845224763,0.17592631942994977,0.04718836035835741,1224.8241689181066,22753.77937058436
6.513256628314157,948.6253155167515,947.6961796289114,0.19828540607022246,0.0,0.2217053342345172,0.17588500821970515,0.047187847722553695,1224.7931438584717,22763.554466641133
6.523261630815408,948.7262269764877,947.795722984716,0.19842460304185966,0.0,0.2217455987048667,0.17584354592965565,0.047187340306753464,1224.7620048196236,22773.322612131487
6.533266633316658,948.8273372096457,947.8954546574422,0.19856432065987395,0.0,0.2217860127851231,0.1758019316320041,0.047186838143658906,1224.7307511203924,22783.0838207912
6.543271635817908,948.9286475014482,947.9953760028606,0.19870456203961404,0.0,0.22182657739345968,0.17576016440257347,0.04718634126616728,1224.6993820819323,22792.83810634212
6.55327663831916,949.0301591313865,948.0954883691188,0.1988453302858639,0.0,0.22186729344449357,0.1757182433207094,0.047185849707370435,1224.6678970276525,22802.58548249211
6.56328164082041,949.1318733734023,948.1957930969565,0.1989866284931608,0.0,0.22190816184938505,0.17567616746918094,0.04718536350055429,1224.6362952831498,22812.325962935032
6.57328664332166,949.2337914960553,948.2962915199136,0.19912845974608112,0.0,0.22194918351592657,0.17563393593409143,0.04718488267919839,1224.6045761761447,22822.059561350663
6.583291645822912,949.3359147627036,948.3969849645413,0.1992708271195948,0.0,0.22199035934865327,0.17559154780476816,0.04718440727697542,1224.572739036407,22831.78629140468
6.593296648324162,949.4382444316627,948.4978747505999,0.19941373367930224,0.0,0.22203169024891686,0.1755490021736881,0.04718393732775076,1224.5407831957036,22841.506166748608
6.603301650825412,949.5407817563807,948.5989621912637,0.19955718248180354,0.0,0.22207317711500071,0.1755062981363632,0.04718347286558199,1224.5087079877185,22851.21920101979
6.613306653326664,949.6435279855976,948.7002485933144,0.19970117657495665,0.0,0.2221148208422001,0.17546343479125953,0.04718301392471851,1224.4765127479964,22860.925407841372
6.623311655827914,949.7464843635056,948.8017352573333,0.1998457189981769,0.0,0.22215662232291608,0.1754204112397042,0.047182560539601036,1224.4441968138801,22870.624800822232
6.633316658329164,949.8496521299069,948.9034234778906,0.19999081278272177,0.0,0.2221985824467437,0.17537722658579635,0.047182112744861164,1224.4117595244463,22880.317393556994
6.643321660830415,949.9530325203714,949.0053145437321,0.20013646095199306,0.0,0.22224070210056637,0.17533387993631314,0.047181670575321,1224.3792002204411,22890.003199625986
6.653326663331666,950.0566267663878,949.1074097379618,0.2002826665218059,0.0,0.22228298216863976,0.17529037040062567,0.04718123406599269,1224.3465182442224,22899.682232595216
6.663331665832916,950.1604360955158,949.2097103382205,0.20042943250067954,0.0,0.22232542353268225,0.17524669709060856,0.04718080325207798,1224.313712939697,22909.354506016352
6.673336668334167,950.2644617315331,949.3122176168624,0.2005767618901083,0.0,0.22236802707195938,0.1752028591205554,0.047180378168967856,1224.2807836522609,22919.020033426732
6.683341670835418,950.3687048945844,949.4149328411307,0.2007246576848541,0.0,0.22241079366337504,0.1751588556070875,0.04717995885224209,1224.2477297287373,22928.678828349297
6.693346673336668,950.4731668013216,949.5178572733257,0.20087312287319325,0.0,0.22245372418154827,0.17511468566907712,0.04717954533766885,1224.2145505173214,22938.330904292638
6.703351675837919,950.5778486650488,949.6209921709739,0.20102216043721108,0.0,0.22249681949890487,0.17507034842755564,0.0471791376612043,1224.181245367519,22947.976274750945
6.71335667833917,950.6827516958587,949.7243387869918,0.2011717733530418,0.0,0.22254008048575258,0.17502584300563861,0.047178735858992196,1224.147813630093,22957.614953204014
6.72336168084042,950.7878771007734,949.8278983698505,0.20132196459116192,0.0,0.22258350801037186,0.17498116852843454,0.04717833996736346,1224.1142546569993,22967.24695311726
6.7333666833416705,950.8932260838787,949.9316721637338,0.2014727371166391,0.0,0.2226271029390937,0.17493632412296722,0.04717795002283586,1224.0805678013355,22976.872287941682
6.743371685842921,950.9987998464569,950.0356614086949,0.20162409388938415,0.0,0.2226708661363782,0.17489130891809737,0.047177566062113555,1224.046752417284,22986.49097111388
6.753376688344172,951.1045995871184,950.1398673408123,0.20177603786441412,0.0,0.222714798464896,0.1748461220444404,0.047177188122086704,1224.0128078600553,22996.103016056066
6.7633816908454225,951.2106265019356,950.2442911923429,0.20192857199212558,0.0,0.2227589007856139,0.1748007626342814,0.04717681623983114,1223.9787334858302,23005.708436176046
6.773386693346673,951.3168817845632,950.348934191868,0.2020816992185007,0.0,0.22280317395785867,0.1747552298215111,0.047176450452607925,1223.9445286517137,23015.307244867243
6.783391695847924,951.42336662637,950.4537975644445,0.20223542248539478,0.0,0.22284761883940676,0.1747095227415359,0.047176090797862995,1223.910192715674,23024.89945550871
6.7933966983491745,951.5300822165632,950.558882531749,0.20238974473077812,0.0,0.22289223628655921,0.1746636405312028,0.04717573731322677,1223.8757250364883,23034.485081465107
6.803401700850425,951.6370297423075,950.66419031222,0.20254466888895853,0.0,0.22293702715421151,0.17461758232873006,0.04717539003651378,1223.841124973698,23044.064136086767
6.813406703351676,951.7442103888469,950.769722121198,0.20270019789083285,0.0,0.2229819922959313,0.17457134727362864,0.047175049005722273,1223.8063918875496,23053.636632709644
6.8234117058529264,951.8516253396281,950.8754791710676,0.20285633466414876,0.0,0.22302713256404014,0.17452493450662093,0.047174714259033856,1223.7715251389425,23063.202584655402
6.833416708354177,951.959275776413,950.9814626713901,0.20301308213370664,0.0,0.22307244880967636,0.17447834316957753,0.0471743858348131,1223.7365240893814,23072.762005231365
