z,T,t,fs,fl,x,y,w,rhob,p
0.0,638.838816007795,505.0,0.0,0.0,0.16078024537162572,0.23735318335420333,0.04758078216399187,1268.0,14330.0
0.010005002501250625,647.5817483319568,518.4594070626276,2.6826204206586066e-05,0.0,0.16078856324106172,0.23734486548457925,0.04758078216369428,1267.994199101439,14341.370189004601
0.02001000500250125,655.9960858853977,531.3926649054426,5.785031903529969e-05,0.0,0.1607981827357268,0.23733524598947578,0.04758078216300054,1267.9874904464675,14352.974237270404
0.030015007503751877,664.0971844197342,543.8259488560434,9.327126875930647e-05,0.0,0.16080916553472904,0.23732426318952182,0.047580782161494486,1267.9798310194722,14364.803776053794
0.0400200100050025,671.8994548618541,555.7836824429828,0.00013325906345712098,0.0,0.16082156435159886,0.23731186437071244,0.047580782158425254,1267.971184057061,14376.850692028249
0.05002501250625312,679.4164376340624,567.2886896983443,0.00017795618490062755,0.0,0.1608354233638303,0.23729800535474244,0.047580782152509216,1267.961518748271,14389.107122508081
0.060030015007503754,686.6608725359483,578.3623359351302,0.00022747937142530948,0.0,0.16085077876606743,0.2372826499456482,0.047580782141658264,1267.9508098484578,14401.565449445685
0.07003501750875438,693.6447610435018,589.0246518081026,0.0002819215448063022,0.0,0.16086765936724745,0.23726576933243937,0.047580782122623295,1267.9390372624323,14414.21829335129
0.080040020010005,700.3794208003325,599.294440959647,0.00034135374822726766,0.0,0.16088608719109534,0.23724734148831567,0.0475807820905381,1267.9261856251437,14427.058507714843
0.09004502251125562,706.8755368284858,609.1893798394904,0.00040582715132535463,0.0,0.16090607809733104,0.23722735054911034,0.04758078203836552,1267.9122438678055,14440.07917270477
0.10005002501250625,713.1432082473062,618.726107800856,0.00047537500916797757,0.0,0.16092764238850962,0.2372057862060405,0.04758078195625054,1267.8972047939296,14453.273588681706
0.11005502751375687,719.1919890891568,627.9203053461302,0.0005500144857889654,0.0,0.16095078537477797,0.23718264314047804,0.04758078183077216,1267.8810646845948,14466.635270380188
0.12006003001500751,725.0309263801888,636.786766390943,0.0006297484064924013,0.0,0.16097550791647341,0.23715792048082723,0.04758078164411466,1267.8638229190728,14480.157940793328
0.13006503251625812,730.6685957602176,645.3394651636409,0.0007145669138975788,0.0,0.16100180693683172,0.23713162128926107,0.04758078137318801,1267.8454816162434,14493.835524713708
0.14007003501750875,736.1131326575002,653.5916144826352,0.0008044489604426493,0.0,0.16102967588393596,0.23710375209918003,0.04758078098869123,1267.8260453113398,14507.662142970206
0.15007503751875936,741.3722610268254,661.5557190833218,0.0008993636882555175,0.0,0.1610591051577202,0.23707432248760063,0.047580780454149804,1267.805520657037,14521.63210671175
0.16008004002001,746.4533208774689,669.2436261858986,0.0009992717137300828,0.0,0.16109008250745296,0.2370433446770832,0.04758077972498469,1267.783916145164,14535.739911222456
0.17008504252126064,751.3632925040763,676.6665698280262,0.0011041262675445412,0.0,0.16112259338441326,0.23701083318247793,0.047580778747597016,1267.7612418596839,14549.980230370244
0.18009004502251125,756.1088185148792,683.8352109629151,0.001213874224044046,0.0,0.16115662126029898,0.23697680449196398,0.047580777458494754,1267.7375092536186,14564.34791135195
0.19009504752376188,760.6962253288943,690.7596762128516,0.001328457049685012,0.0,0.16119214792064743,0.23694127677315463,0.04758077578354131,1267.7127309435477,14578.837968926395
0.2001000500250125,765.131542301221,697.4495922155136,0.001447811638937119,0.0,0.16122915372343943,0.23690426961407457,0.04758077363729367,1267.6869205284872,14593.445580157637
0.21010505252626313,769.4205188981103,703.9141163640782,0.0015718710579553815,0.0,0.16126761782919302,0.23686580379271027,0.04758077092243862,1267.6600924287693,14608.166079602015
0.22011005502751374,773.5686416047995,710.161966801827,0.0017005652221510055,0.0,0.16130751841072563,0.23682590106700888,0.04758076752941519,1267.6322617393164,14622.994954043847
0.23011505752876438,777.5811492345927,716.2014494707735,0.0018338214920658991,0.0,0.16134883283771176,0.23678458399017271,0.04758076333618049,1267.603444100661,14637.927837568575
0.24012006003001501,781.4630465496936,722.0404821248617,0.001971565198495929,0.0,0.16139153783941576,0.23674187574785915,0.04758075820810311,1267.5736555853348,14652.960507147005
0.25012506253126565,785.2191176350096,727.6866177296826,0.0021137201147846778,0.0,0.16143560965122516,0.23669780001170965,0.04758075199806182,1267.5429125957933,14668.088877906763
0.26013006503251623,788.8539383057444,733.1470660714765,0.0022602088715977563,0.0,0.16148102414349633,0.23665238081067208,0.04758074454671167,1267.5112317748722,14683.308998546483
0.27013506753376687,792.3718870789395,738.4287128380616,0.00241095332018163,0.0,0.16152775693453833,0.23660564241826468,0.04758073568287578,1267.478629927451,14698.61704727495
0.2801400700350175,795.7771558175555,743.5381380194511,0.0025658748547606395,0.0,0.1615757834910864,0.23655760925246475,0.047580725224118665,1267.4451239510513,14714.009327606069
0.29014507253626814,799.0737598868025,748.4816333718187,0.0027248946941409056,0.0,0.16162507921626607,0.23650830578820656,0.047580712977477575,1267.4107307753472,14729.482264118547
0.3001500750375187,802.2655471167885,753.2652178133307,0.002887934127278943,0.0,0.1616756195264706,0.2364577564810285,0.047580698740292214,1267.3754673095175,14745.032398713594
0.31015507753876936,805.3562063367049,757.8946520206019,0.003054914728691087,0.0,0.16172737991900074,0.23640598570003932,0.04758068230116377,1267.3393503961913,14760.656386892362
0.32016008004002,808.3492757496466,762.3754526669081,0.003225758543866666,0.0,0.1617803360305081,0.23635301767015568,0.04758066344103323,1267.3023967719491,14776.350993863003
0.33016508254127064,811.2481503453408,766.7129050130425,0.0034003882502481207,0.0,0.16183446368791196,0.23629887642190256,0.047580641934315354,1267.2646230331325,14792.113091087695
0.3401700850425213,814.056088806324,770.9120746055481,0.003578727297312478,0.0,0.16188973895289474,0.23624358574767665,0.04758061755010025,1267.2260456062145,14807.939652984685
0.35017508754377186,816.7762204462447,774.9778189541424,0.003760700023580764,0.0,0.161946138159297,0.2361871691651494,0.0475805900534157,1267.1866807231906,14823.827753383433
0.3601800900450225,819.4115514056098,778.914797947677,0.003946231757334856,0.0,0.16200363794546743,0.23612964988571958,0.047580559206497876,1267.1465444004966,14839.774562338636
0.37018509254627313,821.9649703074047,782.7274833481827,0.004135248903986016,0.0,0.16206221528248407,0.23607105078710283,0.04758052477007394,1267.105652420821,14855.777343190297
0.38019009504752377,824.4392540158339,786.4201683963257,0.004327679015287371,0.0,0.16212184749674205,0.2360113943915521,0.04758048650464099,1267.0640203188404,14871.833449367467
0.39019509754877435,826.83707286222,789.9969765142193,0.004523450847474496,0.0,0.16218251228907732,0.23595070284751998,0.04758044417171017,1267.0216633693326,14887.940321450551
0.400200100050025,829.1609953419874,793.4618691227776,0.004722494411743293,0.0,0.1622441877514874,0.23588899791370524,0.04758039753502075,1266.9785965769245,14904.095484524345
0.4102051025512756,831.4134928925046,796.8186535475874,0.0049247410108119475,0.0,0.1623068523794857,0.2358263009474289,0.047580346361696266,1266.9348346688228,14920.296545327114
0.42021010505252626,833.5969443387813,800.0709903578842,0.0051301232672086375,0.0,0.16237048508182803,0.23576263289559435,0.04758029042333051,1266.8903920892942,14936.541189542082
0.4302151075537769,835.7136398459676,803.2223998908908,0.005338575147957275,0.0,0.16243506518907241,0.23569801428677783,0.04758022949701737,1266.845282994891,14952.827179393425
0.4402201100550275,837.7657848855648,806.2762687675304,0.005550031979343197,0.0,0.16250057245898308,0.2356324652264186,0.047580163366290555,1266.7995212517756,14969.152351123003
0.4502251125562781,839.7555040422079,809.2358561259475,0.005764430454535857,0.0,0.16256698707963363,0.2355660053942479,0.04758009182196588,1266.7531204345348,14985.514612497207
0.46023011505752875,841.684844379094,812.104299133132,0.005981708640317963,0.0,0.16263428967217392,0.23549865404201226,0.04758001466291694,1266.706093825149,15001.911940608921
0.4702351175587794,843.5557787387452,814.8846183716397,0.00620180597762165,0.0,0.16270246129159013,0.23543042999314143,0.04757993169675245,1266.6584544132509,15018.34237965266
0.48024012006003003,845.3702090163342,817.5797231596771,0.006424663275176129,0.0,0.16277148342522682,0.23536135164458177,0.0475798427403787,1266.6102148978057,15034.804038637945
0.4902451225612806,847.1299690545904,820.192416256644,0.006650222703852954,0.0,0.16284133799146808,0.2352914369684289,0.047579747620496333,1266.5613876886075,15051.295089370178
0.5002501250625313,848.8368274048644,822.7253983411912,0.006878427788096706,0.0,0.16291200733743763,0.23522070351448707,0.04757964617401041,1266.5119849083583,15067.813764487903
0.5102551275637819,850.4924901466494,825.1812725624796,0.007109223390508638,0.0,0.162983474234469,0.2351491684149807,0.04757953824831875,1266.4620183961586,15084.358355377331
0.5202601300650325,852.0986033987244,827.5625485930508,0.007342555697811254,0.0,0.163055721873953,0.2350768483888534,0.04757942370154284,1266.4114997106706,15100.927210312717
0.5302651325662832,853.6567556482955,829.8716463839291,0.007578372206517468,0.0,0.16312873386303672,0.23500375974617355,0.047579302402694194,1266.3604401333075,15117.518732715871
0.5402701350675337,855.1684801776078,832.1109000573884,0.007816621702086135,0.0,0.1632024942182007,0.23492991839458935,0.04757917423172471,1266.3088506727681,15134.131379268621
0.5502751375687843,856.6352572565313,834.282561422262,0.008057254239409272,0.0,0.163276987359207,0.2348553398453825,0.047579039079529574,1266.2567420692606,15150.763658198914
0.560280140070035,858.0585161312777,836.3888031615406,0.008300221124802639,0.0,0.16335219810347862,0.23478003921906532,0.04757889684791021,1266.2041247983725,15167.414127722008
0.5702851425712856,859.4396371052692,838.4317221519744,0.008545474892447799,0.0,0.16342811165867197,0.23470403125272304,0.04757874744943915,1266.1510090760949,15184.08139434908
0.5802901450725363,860.7799534652327,840.4133425330734,0.008792969281460741,0.0,0.1635047136154082,0.23462733030717167,0.047578590807285,1266.0974048636808,15200.764111306617
0.5902951475737869,862.0807532009603,842.3356184479148,0.009042659215558557,0.0,0.16358198994079567,0.23454995037331408,0.047578426855019784,1266.04332187194,15217.460977125711
0.6003001500750375,863.3432807832526,844.2004368653792,0.009294500778655108,0.0,0.1636599269706254,0.23447190507977717,0.04757825553635407,1265.9887695663685,15234.17073413995
0.6103051525762881,864.5687388754511,846.0096202898379,0.009548451280713136,0.0,0.1637385114295218,0.23439320767257102,0.047578076804836764,1265.9337571527444,15250.892167028074
0.6203101550775387,865.758343364325,847.7650049758342,0.009804900543341427,0.0,0.1638178641576539,0.23431373728816057,0.0475778906235103,1265.8782003157417,15267.624101763156
0.6303151575787894,866.9135876974597,849.4688146860705,0.010066827336989725,0.0,0.16389890874734872,0.23423257031570058,0.04757769696308944,1265.8214549099496,15284.365411885523
0.64032016008004,868.0351802204459,851.1221560327023,0.010331205495417215,0.0,0.1639807068717307,0.23415064506908678,0.047577495803052886,1265.7641753022817,15301.115008935985
0.6503251625812906,869.1241256695317,852.7265526320772,0.010597631030286032,0.0,0.16406313326067565,0.23406808681169036,0.047577287132733424,1265.7064488453123,15317.871834124866
0.6603301650825413,870.1814398459253,854.2835397550248,0.01086606684102257,0.0,0.16414617641063625,0.23398490704542985,0.04757707094957256,1265.648283560259,15334.634864513375
0.6703351675837919,871.2081052143345,855.7946015650368,0.01113647690541858,0.0,0.16422982515917206,0.23390111693595764,0.04757684725867208,1265.5896872393619,15351.403111979109
0.6803401700850426,872.2050720724235,857.2611729548687,0.011408826166559579,0.0,0.16431406864954134,0.2338167273478199,0.04757661607240125,1265.5306674701155,15368.175622127366
0.6903451725862931,873.1732596662907,858.6846412950562,0.011683080511450682,0.0,0.16439889632372612,0.233731748851184,0.04757637741000461,1265.471231639679,15384.95147325478
0.7003501750875437,874.1135573667582,860.0663482712885,0.011959206746544599,0.0,0.16448429791447672,0.23364619172953158,0.04757613129718738,1265.4113869399364,15401.729775232661
0.7103551775887944,875.0268257249198,861.407591533104,0.012237172575788777,0.0,0.16457026343815598,0.23356006598656576,0.04757587776572132,1265.3511403720318,15418.509668502555
0.720360180090045,875.913897440265,862.7096262057031,0.012516946580422647,0.0,0.16465678318813803,0.23347338135257154,0.04757561685306426,1265.2904987505242,15435.290323151605
0.7303651825912957,876.77557839393,863.9736664978898,0.012798498195744695,0.0,0.1647438477272548,0.2333861472917198,0.04757534860196484,1265.2294687081983,15452.07093790604
0.7403701850925463,877.6126485960938,865.200887175733,0.013081797689636254,0.0,0.1648314478808046,0.2332983730088214,0.04757507306008666,1265.1680567005,15468.850739203997
0.7503751875937968,878.4258630368184,866.3924248863308,0.01336681614339712,0.0,0.1649195747302947,0.23321006745535905,0.04757479027965234,1265.1062690094861,15485.62898036154
0.7603801900950475,879.2159525875345,867.5493795561258,0.01365352543016278,0.0,0.16500821960643028,0.23312123933627102,0.04757450031708224,1265.0441117482917,15502.404940674462
0.7703851925962981,879.98362485458,868.6728157135658,0.013941898194100846,0.0,0.16509737408235797,0.23303189711648825,0.04757420323264891,1264.9815908654407,15519.177924562102
0.7803901950975487,880.729564935335,869.7637636613302,0.014231907832173952,0.0,0.16518702996772608,0.2329420490266708,0.04757389909015385,1264.9187121486098,15535.947260808147
0.7903951975987994,881.4544362012343,870.8232206873748,0.014523528474391572,0.0,0.16527717930227792,0.2328517030694115,0.04757358795660721,1264.8554812287252,15552.712301764772
0.80040020010005,882.1588810680082,871.8521522544235,0.014816734963848914,0.0,0.16536781434939063,0.23276086702550253,0.04757326990191936,1264.7919035841085,15569.472422563158
0.8104052026013007,882.843521673861,872.8514930477888,0.015111502839341238,0.0,0.16545892759043127,0.23266954845939836,0.047572944998614745,1264.7279845440785,15586.227020417591
0.8204102051025512,883.5089605587411,873.8221480232148,0.015407808317451494,0.0,0.16555051171895824,0.2325777547248391,0.04757261332155415,1264.6637292926728,15602.975513922507
0.8304152076038018,884.1557813588727,874.7649934761544,0.01570562827358973,0.0,0.1656425596346054,0.23248549297079665,0.04757227494766661,1264.5991428726009,15619.71734232723
0.8404202101050525,884.7845494193529,875.6808779852669,0.016004940225415626,0.0,0.16573506443772318,0.23239277014667695,0.04757192995570134,1264.5342301886913,15636.451964895052
0.8504252126063031,885.3958123849341,876.570623321546,0.016305722316631178,0.0,0.16582801942414493,0.23229959300740452,0.04757157842599139,1264.4689960112685,15653.178860281754
0.8604302151075538,885.9901008243064,877.4350254068155,0.016607953299168473,0.0,0.16592141807946292,0.23220596811900207,0.047571220440225735,1264.4034449798776,15669.897525873102
0.8704352176088044,886.5679287861722,878.2748551676652,0.016911612517405736,0.0,0.1660152540739488,0.2321119018635371,0.04757085608123867,1264.3375816065823,15686.607477193204
0.880440220110055,887.1297943166776,879.0908593298559,0.017216679893443897,0.0,0.1661095212578137,0.23201740044373678,0.047570485432811574,1264.271410279041,15703.308247351875
0.8904452226113057,887.6761800173806,879.8837612729279,0.01752313591058047,0.0,0.166204213655917,0.23192246988815884,0.04757010857948317,1264.204935263974,15719.999386444244
0.9004502251125562,888.2075535514774,880.6542618055116,0.01783096159832394,0.0,0.16629932546296544,0.23182711605588202,0.04756972560637426,1264.1381607103096,15736.680461004293
0.9104552276138069,888.7243681022371,881.4030398675452,0.01814013851888302,0.0,0.16639485103917967,0.23173134464073578,0.04756933659902368,1264.0710906520158,15753.351053508426
0.9204602301150575,889.2270628675683,882.1307532861837,0.01845064875205211,0.0,0.1664907849054714,0.23163516117602512,0.047568941643233456,1264.0037290112807,15770.010761836857
0.9304652326163081,889.7160635221117,882.838039481785,0.018762474881013076,0.0,0.16658712173891538,0.23153857103896844,0.047568540824925655,1263.9360796015085,15786.659198768613
0.9404702351175588,890.1917826281818,883.5255160959698,0.019075599979807945,0.0,0.1666838563687477,0.23144157945461474,0.047568134230008954,1263.8681461299502,15803.295991531024
0.9504752376188094,890.6546200709382,884.1937816555223,0.019390007599681777,0.0,0.16678098377202186,0.23134419150010876,0.04756772194425421,1263.7999322005937,15819.920781320736
0.9604802401200601,891.10496348079,884.8434162163077,0.01970568175566725,0.0,0.1668784990693491,0.23124641210887892,0.04756730405318019,1263.7314413169972,15836.533222837325
0.9704852426213106,891.5431886052968,885.4749819304338,0.020022606914878543,0.0,0.1669763975211748,0.2311482460742929,0.04756688064194694,1263.6626768847655,15853.1329838712
0.9804902451225612,891.9696596905724,886.0890236271682,0.020340767984261487,0.0,0.16707467452389424,0.23104969805348027,0.0475664517952575,1263.5936422141428,15869.719744879825
0.9904952476238119,892.3847298670277,886.6860693997866,0.020660150297978987,0.0,0.16717332560586332,0.23095077257126517,0.04756601759726881,1263.5243405226922,15886.293198558124
1.0005002501250626,892.7887414884211,887.2666311215785,0.020980739606414403,0.0,0.16727234642391575,0.23085147402359657,0.04756557813150854,1263.4547749376286,15902.85304945946
1.0105052526263132,893.1820264661105,887.8312049541786,0.02130252206520949,0.0,0.16737173275989758,0.23075180668096568,0.047565133480798646,1263.3849484981456,15919.399013621027
1.0205102551275638,893.5649066201414,888.3802718807299,0.021625484223484436,0.0,0.16747148051695548,0.23065177469207476,0.04756468372718803,1263.3148641579278,15935.930818170118
1.0305152576288144,893.937693989905,888.9142981777842,0.021949613013479034,0.0,0.16757158571626996,0.23055138208706413,0.047564228951889484,1263.2445247873536,15952.448200974326
1.040520260130065,894.300691128359,889.4337358621015,0.022274895740711637,0.0,0.16767204449395332,0.23045063278057779,0.04756376923522158,1263.1739331755946,15968.950910309266
1.0505252626313157,894.654191419746,889.9390231723783,0.022601320073077046,0.0,0.16777285309762635,0.23034953057515528,0.04756330465655946,1263.1030920329424,15985.438704500195
1.0605302651325663,894.998479365026,890.4305850020636,0.022928874031084893,0.0,0.16787400788335172,0.23024807916426923,0.047562835294289035,1263.0320039928972,16001.911351598816
1.070535267633817,895.3338308432986,890.9088332957893,0.023257545978943132,0.0,0.16797550531283223,0.23014628213510047,0.047562361225764106,1262.9606716140715,16018.368629086095
1.0805402701350675,895.6605133969232,891.3741674810717,0.023587324614583988,0.0,0.16807734195028823,0.23004414297163842,0.04756188252727199,1262.8890973823266,16034.810323549058
1.090545272636318,895.9787864942028,891.8269748659924,0.023918198960470278,0.0,0.1681795144595801,0.22994166505753902,0.04756139927400226,1262.8172837127447,16051.236230382114
1.1005502751375686,896.288901764509,892.2676309952462,0.024250158355415267,0.0,0.16828201960164588,0.22983885167866824,0.04756091154001671,1262.7452329513826,16067.6461535184
1.1105552776388194,896.591103251738,892.696500033434,0.024583192445569165,0.0,0.168384854231687,0.22973570602590176,0.04756041939822668,1262.6729473772057,16084.03990514116
1.12056028014007,896.8856276564159,893.1139351310514,0.02491729117576411,0.0,0.16848801529646862,0.22963223119781276,0.04755992292037398,1262.60042920395,16100.417305407713
1.1305652826413206,897.1727045493456,893.5202787475631,0.025252444781933014,0.0,0.16859149983195218,0.22952843020302702,0.0475594221770116,1262.527680581752,16116.778182204429
1.1405702851425712,897.4525565954831,893.9158629896009,0.025588643783032754,0.0,0.16869530496077986,0.22942430596272997,0.04755891723749017,1262.4547035988865,16133.122370890753
1.1505752876438218,897.7253997769135,894.3010099475842,0.02592587897291774,0.0,0.1687994278897473,0.22931986131318816,0.04755840816994887,1262.3815002835188,16149.449714044533
1.1605802901450726,897.9914435885289,894.6760319912258,0.026264141413261066,0.0,0.1689038659076002,0.22921509900794626,0.047557895041305066,1262.308072605231,16165.76006123712
1.1705852926463232,898.2508912352833,895.0412320672249,0.026603422426345162,0.0,0.16900861638279366,0.2291100217200635,0.04755737791724797,1262.2344224765757,16182.053268806985
1.1805902951475737,898.5039398369112,895.396904007953,0.02694371358746967,0.0,0.16911367676113756,0.22900463204446753,0.04755685686223729,1262.1605517547184,16198.329199625678
1.1905952976488243,898.7507806081518,895.7433328032786,0.02728500671830986,0.0,0.16921904456373538,0.22889893250001375,0.04755633193950053,1262.0864622428721,16214.587722890545
1.200600300150075,898.9915990328708,896.0807948631062,0.02762729388047403,0.0,0.16932471738498628,0.22879292553148298,0.047555803211032005,1262.0121556916888,16230.828713924215
1.2106053026513257,899.2265750510018,896.4095582989577,0.027970567368461832,0.0,0.16943069289040597,0.2286866135117629,0.047555270737597605,1261.9376338007858,16247.052053960846
1.2206103051525763,899.455883225068,896.729883174831,0.02831481970341954,0.0,0.16953696881469468,0.22857999874378307,0.04755473457873828,1261.8628982200971,16263.257629954647
1.2306153076538269,899.6796928949354,897.0420217403298,0.028660043627342913,0.0,0.16964354295994238,0.22847308346231127,0.04755419479277331,1261.78795055113,16279.44533440126
1.2406203101550775,899.8981683471903,897.3462186855447,0.02900623209660919,0.0,0.1697504131936322,0.2283658698359559,0.04755365143680954,1261.7127923483683,16295.615065144058
1.250625312656328,900.1114689691831,897.642711372865,0.02935337827610512,0.0,0.16985757744682756,0.2282583599689844,0.04755310456674979,1261.6374251205452,16311.766725197283
1.2606303151575788,900.3197493881634,897.9317300463922,0.02970147553394666,0.0,0.1699650337125413,0.2281505559029582,0.04755255423729962,1261.5618503317917,16327.90022258526
1.2706353176588294,900.5231596231725,898.2134980603187,0.030050517435609752,0.0,0.17007278004392715,0.22804245961854924,0.04755200050197964,1261.4860694029096,16344.015470168664
1.28064032016008,900.7218452277218,898.4882320934255,0.03040049773840769,0.0,0.1701808145525783,0.2279340730372487,0.04755144341313769,1261.4100837125745,16360.112385481092
1.2906453226613306,900.9159474162952,898.7561423393064,0.030751410386624524,0.0,0.17028913540702795,0.227825398022873,0.047550883021958625,1261.3338945983928,16376.190890582922
1.3006503251625812,901.1056031993944,899.0174327092712,0.031103249506243068,0.0,0.1703977408311269,0.22771643638319491,0.047550319378478374,1261.2575033580483,16392.250911906816
1.310655327663832,901.2909455156694,899.2723010308054,0.031456009399756756,0.0,0.17050662910244901,0.2276071898715477,0.04754975253159905,1261.1809112504347,16408.29238010677
1.3206603301650826,901.4721033479474,899.520939221887,0.031809684541643964,0.0,0.17061579855089892,0.2274976601882251,0.04754918252910129,1261.1041194966392,16424.31522992441
1.3306653326663331,901.6492018427288,899.7635334704148,0.03216426957365985,0.0,0.170725247557266,0.22738784898193695,0.04754860941765913,1261.0271292809693,16440.319400052118
1.3406703351675837,901.822362432238,900.0002644173727,0.0325197592999803,0.0,0.17083497455173383,0.22727775785131032,0.047548033242857224,1260.9499417520126,16456.30483299415
1.3506753376688343,901.9917029415242,900.2313073175983,0.03287614868296681,0.0,0.17094497801258043,0.22716738834619865,0.04754745404920527,1260.8725580235593,16472.271474943587
1.360680340170085,902.1573376941445,900.4568321983724,0.03323343283896633,0.0,0.17105525646488956,0.22705674196897996,0.04754687188015317,1260.7949791755213,16488.219275661235
1.3706853426713357,902.3193776243571,900.6770040276668,0.03359160703379315,0.0,0.17116580847916638,0.2269458201759527,0.047546286778109625,1260.7172062549164,16504.148188348394
1.3806903451725863,902.47793037637,900.8919828630035,0.033950666678751865,0.0,0.17127663267011886,0.22683462437856478,0.04754569878445808,1260.6392402767394,16520.058169533397
1.3906953476738368,902.6331003982087,901.1019239922337,0.03431060732687394,0.0,0.17138772769550464,0.226723155944576,0.04754510793957198,1260.5610822247831,16535.949178963958
1.4007003501750874,902.784989044115,901.306978086993,0.03467142466874942,0.0,0.17149909225485582,0.22661141619934588,0.047544514282834016,1260.48273305255,16551.821179491526
1.4107053526763382,902.9336946666613,901.5072913407585,0.0350331145287882,0.0,0.17161072508833491,0.2264994064269878,0.04754391785265311,1260.4041936840708,16567.674136966507
1.4207103551775888,903.079312700929,901.7030055950192,0.03539567286181365,0.0,0.17172262497569268,0.22638712787142143,0.04754331868647982,1260.3254650146496,16583.50802014183
1.4307153576788394,903.2219357570533,901.8942584778857,0.03575909574925949,0.0,0.17183479073510588,0.2262745817375468,0.04754271682082543,1260.246547911696,16599.322800568756
1.44072036018009,903.3616537057793,902.0811835322256,0.036123379395654735,0.0,0.17194722122210335,0.2261617691923295,0.04754211229127969,1260.1674432154957,16615.11845250012
1.4507253626813406,903.4985537548573,902.2639103301019,0.03648852012550092,0.0,0.17205991532861184,0.22604869136576475,0.047541505132526335,1260.0881517398934,16630.8949528031
1.4607303651825914,903.6327205318227,902.4425645966905,0.036854514379842,0.0,0.1721728719819085,0.22593534935193604,0.04754089537836156,1260.0086742730455,16646.65228086617
1.470735367683842,903.7642361634951,902.6172683292712,0.037221358712960145,0.0,0.17228609014361335,0.2258217442100351,0.04754028306171212,1259.9290115781441,16662.390418509807
1.4807403701850925,903.8931803459906,902.7881399020363,0.037589049789483214,0.0,0.17239956880880572,0.2257078769652543,0.04753966821465102,1259.8491643940508,16678.10934990695
1.490745372686343,904.0196304182577,902.9552941761241,0.03795758438131503,0.0,0.17251330700508852,0.2255937486097341,0.04753905086841493,1259.7691334359718,16693.809061500382
1.5007503751875937,904.1436614358192,903.1188426099229,0.03832695936453711,0.0,0.1726273037916439,0.22547936010351885,0.0475384310534225,1259.6889193961351,16709.48954192056
1.5107553776888443,904.2653462354014,903.2788933557666,0.03869717171670883,0.0,0.17274155825840984,0.22536471237538971,0.047537808799290024,1259.6085229443852,16725.150781912576
1.520760380190095,904.3847555000821,903.4355513573748,0.03906821851412946,0.0,0.17285606952524613,0.22524980632370942,0.047537184134847796,1259.5279447287835,16740.792774263075
1.5307653826913457,904.5019578274083,903.5889184516893,0.039440096928946754,0.0,0.17297083674105393,0.22513464281731396,0.04753655708815823,1259.4471853762425,16756.415513724827
1.5407703851925962,904.6170197893478,903.7390934585177,0.03981280422662522,0.0,0.17308585908300483,0.22501922269629368,0.04753592768653142,1259.3662454930834,16772.018996949544
1.5507753876938468,904.7300059901119,903.8861722669834,0.04018633776349924,0.0,0.17320113575579557,0.22490354677274763,0.04753529595654048,1259.2851256655729,16787.603222423022
1.5607803901950974,904.8409791286791,904.0302479289542,0.04056069498409458,0.0,0.17331666599083362,0.22478761583160978,0.04753466192403914,1259.2038264605117,16803.168190396413
1.5707853926963482,904.950000054539,904.1714107423466,0.04093587341874875,0.0,0.17343244904551264,0.22467143063138267,0.04753402561417721,1259.1223484257582,16818.71390282424
1.5807903951975988,905.0571278193776,904.3097483283702,0.0413118706814082,0.0,0.17354848420254296,0.2245549919048168,0.04753338705141493,1259.040692090712,16834.24036330657
1.5907953976988494,905.1624197339642,904.445345716494,0.041688684467170806,0.0,0.173664770769204,0.22443830035966789,0.04753274625953973,1258.9588579668555,16849.74757702681
1.6008004002001,905.2659314200097,904.578285421905,0.042066312550049174,0.0,0.17378130807666453,0.22432135667938716,0.04753210326168152,1258.8768465482453,16865.235550694608
1.6108054027013505,905.3677168569059,904.7086475153314,0.04244475278096239,0.0,0.17389809547937224,0.2242041615237396,0.04753145808032628,1258.7946583119535,16880.70429249374
1.6208104052026013,905.4678284329178,904.8365096994719,0.04282400308550851,0.0,0.17401513235437702,0.22408671552949108,0.04753081073733171,1258.712293718559,16896.15381202636
1.630815407703852,905.5663169934579,904.9619473810691,0.04320406146186121,0.0,0.17413241810069185,0.22396901931105667,0.04753016125394221,1258.6297532126105,16911.584120260428
1.6408204102051025,905.6632318838163,905.0850337347102,0.043584925978917895,0.0,0.1742499521387307,0.22385107346107116,0.04752950965080187,1258.547037223033,16926.995229482276
1.650825412706353,905.7586209948184,905.2058397709761,0.04396659477429976,0.0,0.17436773390970078,0.2237328785510057,0.04752885594796896,1258.4641461635686,16942.387153247117
1.6608304152076037,905.8525308077287,905.3244344034443,0.04434906605237679,0.0,0.17448576287500342,0.22361443513177628,0.04752820016493044,1258.3810804332124,16957.759906330557
1.6708354177088545,905.9450064336372,905.4408845074767,0.0447323380825445,0.0,0.17460403851571082,0.22349574373427486,0.047527542320614395,1258.2978404165915,16973.113504685323
1.680840420210105,906.0360916539884,905.5552549806899,0.045116409197438215,0.0,0.17472256033202418,0.22337680486991945,0.04752688243340341,1258.2144264843578,16988.44796539733
1.6908454227113556,906.1258289622103,905.6676088050493,0.04550127779108532,0.0,0.1748413278427131,0.22325761903122382,0.04752622052114842,1258.1308389935962,17003.763306641238
1.7008504252126062,906.2142596002346,905.7780071013492,0.04588694231729216,0.0,0.17496034058462637,0.22313818669229402,0.047525556601180824,1258.0470782881796,17019.059547640736
1.7108554277138568,906.3014235944573,905.8865091828533,0.046273401288050305,0.0,0.17507959811220836,0.22301850830931993,0.04752489069032459,1257.9631446991202,17034.33670862957
1.7208604302151076,906.3873597941187,905.9931726125192,0.04666065327181853,0.0,0.17519909999697827,0.22289858432110415,0.04752422280490948,1257.8790385449483,17049.59481081101
1.7308654327163582,906.4721059052805,906.098053253662,0.04704869689200766,0.0,0.17531884582707066,0.22277841514952898,0.047523552960782756,1257.7947601320457,17064.83387632131
1.7408704352176088,906.5556985228778,906.2012053177484,0.04743753082555146,0.0,0.17543883520680228,0.22265800119999657,0.04752288117332021,1257.710309754962,17080.053928195033
1.7508754377188593,906.6381731658311,906.3026814167297,0.047827153801322554,0.0,0.1755590677561918,0.22253734286191698,0.04752220745743866,1257.6256876967636,17095.2549903283
1.76088044022011,906.7195643086883,906.4025326102028,0.04821756459870825,0.0,0.17567954311052839,0.22241644050914686,0.04752153182760716,1257.5408942293475,17110.43708744517
1.7708854427213607,906.7999054104769,906.5008084484186,0.04860876204631522,0.0,0.17580026091997916,0.22229529450038824,0.04752085429785725,1257.4559296137268,17125.600245066576
1.7808904452226113,906.8792289464944,906.5975570196458,0.0490007450205254,0.0,0.17592122084915157,0.22217390517963365,0.047520174881794455,1257.37079410035,17140.74448947725
1.7908954477238619,906.9575664377868,906.6928249940908,0.049393512444156955,0.0,0.17604242257668787,0.2220522728765783,0.04751949359260914,1257.2854879293964,17155.869847694845
1.8009004502251125,907.0349484774299,906.7866576630556,0.04978706328527539,0.0,0.1761638657949052,0.2219303979069863,0.047518810443085986,1257.2000113310373,17170.976347441818
1.810905452726363,907.1114047590097,906.8790989813592,0.05018139655589176,0.0,0.1762855502094009,0.22180828057309174,0.04751812544561463,1257.1143645257253,17186.064017115943
1.8209104552276139,907.1869641040886,906.9701916082387,0.050576511310703974,0.0,0.17640747553867167,0.22168592116398594,0.04751743861219992,1257.0285477244706,17201.132885761934
1.8309154577288644,907.2616544863675,907.0599769433368,0.05097240664599462,0.0,0.17652964151377995,0.2215633199559574,0.04751674995447093,1256.9425611290844,17216.18298304588
1.840920460230115,907.335503057032,907.1484951644393,0.05136908169846595,0.0,0.17665204787800087,0.2214404772128501,0.04751605948369055,1256.856404932437,17231.21433922903
1.8509254627313656,907.408536170282,907.235785265478,0.05176653564405989,0.0,0.17677469438646537,0.2213173931864271,0.04751536721076531,1256.7700793187173,17246.22698514182
1.8609304652326162,907.4807794057036,907.3218850898347,0.05216476769692874,0.0,0.17689758080584841,0.22119406811668754,0.047514673146253864,1256.6835844636603,17261.220952160515
1.870935467733867,907.552257590766,907.4068313638243,0.052563777108395326,0.0,0.17702070691405455,0.22107050223218666,0.047513977300375695,1256.5969205347778,17276.196272183923
1.8809404702351176,907.6229948244447,907.4906597318441,0.052963563165852455,0.0,0.17714407249988462,0.2209466957503748,0.047513279683020326,1256.5100876916,17291.152977609752
1.8909454727363681,907.6930144980278,907.5734047873306,0.05336412519179717,0.0,0.1772676773627436,0.22082264887789466,0.047512580303755464,1256.4230860858888,17306.091101313166
1.9009504752376187,907.7623393151268,907.65510010253,0.05376546254290062,0.0,0.17739152131235916,0.22069836181086788,0.047511879171834824,1256.3359158618455,17321.010676626138
1.9109554777388693,907.8309913133895,907.7357782607882,0.05416757460898893,0.0,0.17751560416847345,0.22057383473520867,0.047511176296206784,1256.2485771563327,17335.911737315953
1.9209604802401201,907.8989918838885,907.8154708853824,0.0545704608121354,0.0,0.1776399257605683,0.22044906782690327,0.047510471685522096,1256.1610700990768,17350.794317565596
1.9309654827413707,907.9663617890542,907.8942086661851,0.05497412060582186,0.0,0.17776448592761168,0.22032406125226828,0.04750976534814101,1256.073394812853,17365.65845195529
1.9409704852426213,908.0331211824503,907.9720213890572,0.0553785534740041,0.0,0.17788928451777494,0.2201988151682384,0.0475090572921413,1255.9855514136916,17380.504175443115
1.9509754877438719,908.0992896268456,908.0489379627027,0.0557837589302586,0.0,0.1780143213881747,0.22007332972262897,0.04750834752532556,1255.897540011067,17395.33152334709
1.9609804902451224,908.164886110478,908.1249864428355,0.056189736517016614,0.0,0.1781395964046413,0.21994760505437203,0.047507636055227814,1255.8093607080655,17410.14053132851
1.970985492746373,908.2299290648639,908.2001940586314,0.05659648580471742,0.0,0.17826510944146273,0.21982164129377663,0.047506922889120805,1255.7210136015742,17424.93123537467
1.9809904952476238,908.2944363816547,908.274587237757,0.05700400639100582,0.0,0.17839086038114194,0.2196954385627763,0.04750620803402292,1255.6324987824576,17439.70367178242
1.9909954977488744,908.3584254275431,908.3481916285003,0.05741229790002488,0.0,0.1785168491141829,0.21956899697514645,0.04750549149670436,1255.5438163357135,17454.4578771431
2.001000500250125,908.4219130601676,908.421032123371,0.057821359981655635,0.0,0.17864307553886083,0.21944231663673872,0.0475047732836937,1255.4549663406417,17469.193888327183
2.0110055027513756,908.4849156438161,908.4931328823972,0.05823119231076345,0.0,0.17876953956099437,0.21931539764571265,0.047504053401284475,1255.3659488710102,17483.91174246926
2.0210105052526264,908.5474490632026,908.5645173535526,0.05864179458653941,0.0,0.17889624109374627,0.21918824009273866,0.04750333185554094,1255.2767639952003,17498.61147695435
2.0310155077538767,908.6095287376069,908.6352082937148,0.05905316653182064,0.0,0.17902318005741819,0.21906084406120727,0.04750260865230394,1255.1874117763587,17513.293129404246
2.0410205102551275,908.6711696354554,908.70522779027,0.059465307892385626,0.0,0.17915035637923737,0.2189332096274459,0.047501883797197206,1255.0978922725506,17527.956737663877
2.0510255127563783,908.732386287128,908.7745972800709,0.05987821843633696,0.0,0.17927776999317033,0.218805336860909,0.04750115729563266,1255.0082055368985,17542.602339788864
2.0610305152576287,908.7931927975307,908.843337568045,0.060291897953494045,0.0,0.1794054208397392,0.21867722582436494,0.04750042915281579,1254.9183516177145,17557.229974033344
2.0710355177588795,908.8536028595622,908.9114688471093,0.06070634625473788,0.0,0.17953330886582355,0.2185488765740977,0.04749969937375142,1254.8283305586474,17571.839678837667
2.08104052026013,908.913629766055,908.9790107158208,0.061121563171431074,0.0,0.1796614340244853,0.21842028916008543,0.04749896796324885,1254.7381423988083,17586.431492817042
2.0910455227613807,908.973286421021,909.0459821949709,0.06153754855487211,0.0,0.17978979627480357,0.2182914636261684,0.047498234925926607,1254.6477871728937,17601.00545475068
2.1010505252626315,909.0325853519896,909.112401745798,0.061954302275691174,0.0,0.17991839558169223,0.21816240001023493,0.047497500266217824,1254.5572649113171,17615.561603570735
2.111055527763882,909.0915387211603,909.1782872864238,0.06237182422330494,0.0,0.1800472319157351,0.2180330983443893,0.04749676398837513,1254.466575640331,17630.099978351973
2.1210605302651326,909.1501583355688,909.2436562068066,0.06279011430542057,0.0,0.180176305253036,0.21790355865510455,0.047496026096474867,1254.3757193821361,17644.620618302055
2.131065532766383,909.2084556582815,909.3085253852108,0.06320917244748492,0.0,0.18030561557505226,0.21777378096339167,0.047495286594422176,1254.2846961550026,17659.123562751614
2.141070535267634,909.2664418188227,909.3729112035188,0.06362899859217155,0.0,0.1804351628684399,0.21764376528495774,0.04749454548595545,1254.1935059733837,17673.60885114492
2.151075537768884,909.3241276224791,909.4368295608554,0.06404959269892455,0.0,0.1805649471249156,0.21751351163034643,0.047493802774650345,1254.1021488480178,17688.076523031097
2.161080540270135,909.381523560367,909.5002958883233,0.06447095474346139,0.0,0.1806949683411064,0.21738302000509072,0.0474930584639243,1254.0106247860367,17702.52661805532
2.1710855427713858,909.4386398191864,909.5633251632606,0.06489308471729067,0.0,0.18082522651840421,0.21725229040986174,0.047492312557040756,1253.9189337910727,17716.95917595036
2.181090545272636,909.4954862898294,909.625931921761,0.06531598262728812,0.0,0.18095572166283755,0.21712132284059882,0.047491565057112994,1253.8270758633535,17731.37423652864
2.191095547773887,909.5520725763892,909.6881302717676,0.06573964849525103,0.0,0.1810864537849367,0.21699011728864712,0.047490815967108024,1253.7350509997993,17745.77183967445
2.2011005502751373,909.6084080052758,909.7499339063053,0.0661640823574457,0.0,0.18121742289959758,0.21685867374089643,0.047490065289850655,1253.6428591941233,17760.152025336287
2.211105552776388,909.6645016332483,909.8113561150591,0.06658928426421079,0.0,0.18134862902596105,0.2167269921799038,0.0474893130280271,1253.5505004369195,17774.51483351974
2.221110555277639,909.7203622554807,909.8724097959722,0.06701525427955846,0.0,0.18148007218729315,0.21659507258401572,0.04748855918418841,1253.4579747157516,17788.86030428053
2.2311155577788893,909.7759984140597,909.9331074674591,0.06744199248075179,0.0,0.18161175241085692,0.21646291492749872,0.047487803760754316,1253.3652820152454,17803.188477717653
2.24112056028014,909.8314184055296,909.9934612791501,0.06786949895793218,0.0,0.18174366972780007,0.21633051918065377,0.04748704676001656,1253.272422317171,17817.499393967002
2.2511255627813904,909.8866302881585,910.0534830221766,0.06829777381376072,0.0,0.18187582417304643,0.21619788530992676,0.04748628818414207,1253.1793956005235,17831.793093195116
2.2611305652826412,909.9416418898337,910.1131841403536,0.06872681716302662,0.0,0.1820082157851778,0.21606501327802885,0.047485528035176465,1253.086201841609,17846.069615593147
2.271135567783892,909.9964608151848,910.1725757401558,0.06915662913229609,0.0,0.18214084460632782,0.21593190304404491,0.04748476631504719,1252.9928410141208,17860.32900137106
2.2811405702851424,910.0510944522176,910.2316685998935,0.06958720985958722,0.0,0.18227371068208365,0.2157985545635332,0.047484003025566386,1252.8993130892136,17874.571290752137
2.291145572786393,910.105549979616,910.2904731798402,0.07001855949401022,0.0,0.18240681406137724,0.2156649677886364,0.04748323816843416,1252.8056180355818,17888.79652396756
2.3011505752876436,910.1598343735038,910.3489996314784,0.07045067819543627,0.0,0.18254015479638547,0.21553114266818332,0.04748247174524151,1252.7117558195325,17903.00474125129
2.3111555777888944,910.213954413614,910.4072578057669,0.07088356613419906,0.0,0.18267373294243971,0.21539707914778097,0.047481703757472946,1252.617726405053,17917.195982835146
2.321160580290145,910.2679166900219,910.465257262184,0.07131722349076719,0.0,0.18280754855792702,0.21526277716991524,0.04748093420650948,1252.5235297538802,17931.370288944032
2.3311655827913955,910.3217276096092,910.5230072772808,0.07175165045543193,0.0,0.1829416017041958,0.21512823667404707,0.04748016309363137,1252.4291658255738,17945.527699791408
2.3411705852926463,910.3753934019127,910.580516852182,0.07218684722802957,0.0,0.18307589244547157,0.21499345759669786,0.04747939042002058,1252.334634577574,17959.668255574925
2.3511755877938967,910.4289201253531,910.6377947205593,0.0726228140176453,0.0,0.183210420848768,0.21485843987154082,0.04747861618676344,1252.2399359652695,17973.791996472206
2.3611805902951475,910.4823136734669,910.6948493565053,0.07305955104231868,0.0,0.1833451869837975,0.21472318342949134,0.04747784039485328,1252.1450699420604,17987.89896263692
2.3711855927963983,910.5355797805581,910.7516889813593,0.07349705852878294,0.0,0.1834801909228926,0.21458768819878746,0.047477063045192724,1252.0500364594184,18001.9891941949
2.3811905952976486,910.5887240275306,910.8083215706635,0.07393533671219767,0.0,0.18361543274092515,0.214451954105072,0.04747628413859603,1251.9548354669437,18016.062731240458
2.3911955977988995,910.6417518479559,910.8647548613425,0.07437438583587141,0.0,0.18375091251522246,0.21431598107147815,0.04747550367579163,1251.859466912428,18030.119613832998
2.40120060030015,910.6946685336419,910.9209963579084,0.07481420615101524,0.0,0.18388663032549285,0.21417976901870497,0.04747472165742428,1251.7639307419067,18044.159881993644
2.4112056028014006,910.7474792402197,910.9770533384684,0.07525479791650017,0.0,0.18402258625375234,0.2140433178650926,0.047473938084057164,1251.6682268997163,18058.183575702024
2.4212106053026514,910.8001889931221,911.0329328611788,0.0756961613985967,0.0,0.18415878038424596,0.21390662752670192,0.04747315295617427,1251.5723553285472,18072.190734893396
2.431215607803902,910.8528026931942,911.0886417698426,0.07613829687074058,0.0,0.18429521280337674,0.21376969791738692,0.04747236627418243,1251.4763159695005,18086.18139945578
2.4412206103051526,910.9053251222115,911.1441866990502,0.07658120461331024,0.0,0.18443188359963883,0.2136325289488632,0.04747157803841329,1251.3801087621325,18100.155609227182
2.451225612806403,910.9577609488775,911.1995740798507,0.07702488491338311,0.0,0.18456879286354347,0.21349512053078287,0.04747078824912543,1251.2837336445127,18114.11340399323
2.4612306153076537,911.010114734607,911.25481014473,0.07746933806451184,0.0,0.18470594068755156,0.21335747257080362,0.04746999690650642,1251.1871905532703,18128.05482348476
2.4712356178089045,911.0623909391976,911.3099009319558,0.07791456436651648,0.0,0.18484332716601076,0.2132195849746525,0.04746920401067455,1251.0904794236405,18141.979907375564
2.481240620310155,911.1145939269824,911.3648522903912,0.07836056412525745,0.0,0.18498095239508688,0.213081457646196,0.047468409561680865,1250.9936001895176,18155.88869528042
2.4912456228114057,911.1667279729594,911.4196698838209,0.07880733765242015,0.0,0.18511881647269873,0.21294309048750623,0.047467613559511096,1250.8965527834982,18169.781226753246
2.501250625312656,911.2187972688577,911.4743591945339,0.0792548852653173,0.0,0.1852569194984585,0.21280448339892177,0.04746681600408735,1250.7993371369287,18183.6575412853
2.511255627813907,911.2708059296516,911.5289255272043,0.07970320728667715,0.0,0.18539526157360742,0.21266563627911297,0.047466016895269955,1250.7019531799494,18197.517678303644
2.5212606303151577,911.3227580002539,911.5833740125003,0.0801523040444343,0.0,0.18553384280095297,0.21252654902514637,0.047465216232859334,1250.6044008415427,18211.361677169873
2.531265632816408,911.3746574622502,911.6377096098976,0.08060217587153855,0.0,0.18567266328481064,0.21238722153254327,0.04746441401659764,1250.5066800495742,18225.189577178786
2.541270635317659,911.4265082410708,911.6919371105444,0.08105282310575493,0.0,0.18581172313094368,0.2122476536953418,0.047463610246170525,1250.4087907308374,18239.001417557356
2.551275637818909,911.4783142135226,911.7460611400603,0.08150424608945929,0.0,0.18595102244650139,0.21210784540615932,0.0474628049212089,1250.3107328110982,18252.79723746403
2.56128064032016,911.5300792155246,911.8000861605151,0.08195644516944943,0.0,0.1860905613399617,0.21196779655625098,0.047461998041290615,1250.2125062151374,18266.57707598794
2.571285642821411,911.5818070503294,911.8540164721949,0.08240942069675314,0.0,0.18623033992107343,0.21182750703556857,0.047461189605942075,1250.1141108667935,18280.34097214842
2.581290645322661,911.6335014972601,911.9078562154522,0.08286317302642578,0.0,0.18637035830079482,0.2116869767328231,0.047460379614640044,1250.0155466890058,18294.088964894876
2.591295647823912,911.6851663208599,911.9616093717439,0.08331770251736041,0.0,0.18651061659123638,0.21154620553554296,0.047459568066813305,1249.9168136038581,18307.821093106737
2.6013006503251623,911.7368052806752,912.0152797641915,0.0837730095320981,0.0,0.1866511149056031,0.21140519333013266,0.04745875496184426,1249.8179115326195,18321.537395593496
2.611305652826413,911.7884221416828,912.0688710583081,0.08422909443662495,0.0,0.1867918533581336,0.21126394000193505,0.04745794029907072,1249.7188403957903,18335.23791109531
2.621310655327664,911.8400206853825,912.1223867619402,0.08468595760017662,0.0,0.18693283206404054,0.21112244543529174,0.04745712407778759,1249.6196001131434,18348.92267828369
2.6313156578289143,911.8916047217892,912.1758302245036,0.08514359939504504,0.0,0.18707405113945239,0.21098070951360245,0.047456306297248584,1249.5201906037696,18362.591735762304
2.641320660330165,911.9431781022062,912.2292046363626,0.08560202019637059,0.0,0.18721551070135034,0.21083873211938922,0.04745548695666794,1249.4206117861208,18376.24512206838
2.6513256628314155,911.9947447329414,912.2825130275013,0.08606122038193649,0.0,0.18735721086750654,0.21069651313435955,0.04745466605522229,1249.3208635780577,18389.882875674266
2.6613306653326663,912.0463085903152,912.3357582652906,0.08652120033196485,0.0,0.1874991517564218,0.21055405243946929,0.0474538435920524,1249.220945896894,18403.505034989208
2.671335667833917,912.0978737366545,912.3889430522844,0.08698196042889841,0.0,0.1876413334872601,0.21041134991498991,0.047453019566265034,1249.1208586594432,18417.111638361654
2.6813406703351674,912.1494443375137,912.4420699234327,0.0874435010571796,0.0,0.18778375617978132,0.2102684054405765,0.04745219397693491,1249.02060178207,18430.70272408198
2.6913456728364182,912.2010246806888,912.4951412422471,0.08790582260302793,0.0,0.18792641995427425,0.2101252188953364,0.047451366823106605,1248.9201751807384,18444.278330385376
2.7013506753376686,912.2526191965856,912.5481591968038,0.08836892545420472,0.0,0.18806932493148518,0.20998179015790164,0.04745053810379662,1248.819578771063,18457.83849545541
2.7113556778389194,912.3042324800646,912.6011257953617,0.08883280999976995,0.0,0.18821247123254423,0.2098381191065038,0.04744970781799546,1248.7188124683637,18471.383257428028
2.72136068034017,912.3558693146783,912.6540428608606,0.08929747662983364,0.0,0.18835585897889046,0.20969420561905075,0.04744887596466988,1248.6178761877197,18484.912654395994
2.7313656828414206,912.4075346988801,912.7069120250455,0.08976292573529489,0.0,0.1884994882921926,0.20955004957320686,0.047448042542765016,1248.5167698440284,18498.42672441392
2.7413706853426714,912.4592338738909,912.7597347225038,0.0902291577075694,0.0,0.18864335929426682,0.20940565084647714,0.04744720755120689,1248.415493352065,18511.925505504016
2.7513756878439217,912.5109723546419,912.8125121836391,0.0906961729383077,0.0,0.18878747210699118,0.209261009316294,0.047446370988904835,1248.3140466265445,18525.409035662342
2.7613806903451725,912.5627559635977,912.8652454271352,0.0911639718190992,0.0,0.1889318268522164,0.20911612486010825,0.047445532854754016,1248.2124295821866,18538.877352865835
2.7713856928464233,912.6145908663636,912.917935252772,0.09163255474116395,0.0,0.1890764236516724,0.2089709973554845,0.047444693147638196,1248.110642133786,18552.33049508018
2.7813906953476737,912.6664836110713,912.970582233492,0.0921019220950316,0.0,0.1892212626268711,0.20882562668019958,0.04744385186643252,1248.0086841962811,18565.768500268405
2.7913956978489245,912.7184411718367,913.0231867070383,0.09257207427020331,0.0,0.1893663438990044,0.20868001271234712,0.047443009010006455,1247.9065556848307,18579.191406400467
2.801400700350175,912.7704709941395,913.0757487686328,0.09304301165480339,0.0,0.18951166758883817,0.20853415533044475,0.047442164577226845,1247.8042565148876,18592.599251463784
2.8114057028514257,912.8225810445654,913.1282682636504,0.09351473463521721,0.0,0.18965723381660335,0.20838805441354574,0.0474413185669611,1247.7017866022836,18605.992073474798
2.8214107053526765,912.8747798659946,913.1807447804516,0.09398724359570955,0.0,0.18980304270188,0.2082417098413564,0.04744047097808051,1247.5991458633096,18619.369910491783
2.831415707853927,912.9270766349727,913.2331776453295,0.09446053891803842,0.0,0.18994909436348043,0.20809512149435547,0.047439621809463636,1247.4963342148028,18632.73280062878
2.8414207103551776,912.9794812236845,913.2855659189551,0.09493462098105918,0.0,0.1900953889193297,0.2079482892539159,0.04743877105999976,1247.3933515742347,18646.080782070792
2.851425712856428,913.0320042686889,913.3379083944292,0.0954094901603116,0.0,0.19024192648634025,0.20780121300243218,0.04743791872859249,1247.2901978598002,18659.413893090685
2.861430715357679,913.0846572423536,913.3902035992436,0.09588514682761182,0.0,0.19038870718028847,0.20765389262344605,0.04743706481416331,1247.186872990511,18672.732172067306
2.8714357178589296,913.1374525283944,913.4424498013879,0.09636159135064933,0.0,0.19053573111569277,0.20750632800177085,0.04743620931565505,1247.0833768862817,18686.035657505206
2.88144072036018,913.1904035051272,913.4946450198378,0.0968388240925788,0.0,0.19068299840569009,0.20735851902361724,0.04743535223203549,1246.9797094680214,18699.324388056357
2.8914457228614308,913.2435246321062,913.54678704204,0.09731684541163452,0.0,0.19083050916191868,0.20721046557671216,0.04743449356230057,1246.8758706577187,18712.59840254363
2.901450725362681,913.2968315392011,913.5988734496908,0.09779565566078094,0.0,0.19097826349441271,0.20706216755040646,0.0474336333054774,1246.7718603785197,18725.857739985673
2.911455727863932,913.3503411234676,913.6509016535515,0.09827525518738704,0.0,0.19112626151150336,0.20691362483577552,0.047432771460627014,1246.6676785547977,18739.102439624454
2.9214607303651827,913.4040716498807,913.7028689403246,0.09875564433295644,0.0,0.1912745033197368,0.20676483732570233,0.04743190802684645,1246.563325112215,18752.33254095488
2.931465732866433,913.4580428512493,913.7547725336789,0.0992368234329483,0.0,0.19142298902382013,0.20661580491493267,0.04743104300327021,1246.458799977761,18765.54808375579
2.941470735367684,913.5122760343528,913.8066096711606,0.09971879281667742,0.0,0.1915717187265905,0.20646652750010633,0.0474301763890708,1246.3541030797758,18778.749108123775
2.9514757378689342,913.5667941894685,913.85837770073,0.10020155280733088,0.0,0.19172069252902002,0.20631700497975183,0.04742930818345814,1246.249234347944,18791.935654509758
2.961480740370185,913.6216220938793,913.9100741986667,0.1006851037221592,0.0,0.19186991053027308,0.20616723725422775,0.047428438385677514,1246.144193713253,18805.107763756445
2.971485742871436,913.6767864174345,913.9616971118664,0.10116944587283824,0.0,0.1920193728278153,0.20601722422561122,0.04742756699500574,1246.0389811079144,18818.265477138648
2.981490745372686,913.7323158289039,914.0132449294027,0.10165457956604952,0.0,0.19216907951758874,0.20586696579751954,0.04742669401074541,1245.9335964652337,18831.408836406816
2.991495747873937,913.7882410891754,914.0647168825327,0.10214050510435008,0.0,0.19231903069427414,0.2057164618748419,0.04742581943221629,1245.828039719416,18844.537883830748
3.0015007503751874,913.8445951387913,914.1161131768714,0.10262722278734504,0.0,0.1924692264516451,0.20556571236337848,0.047424943258744065,1245.7223108053097,18857.65266224565
3.011505752876438,913.9014131803876,914.167435262742,0.10311473291322681,0.0,0.19261966688303278,0.20541471716936632,0.04742406548964549,1245.616409658064,18870.75321510142
3.0215107553776885,913.9587327394235,914.2186861377088,0.10360303578074548,0.0,0.19277035208192103,0.2052634761988721,0.04742318612420958,1245.5103362126904,18883.83958651131
3.0315157578789393,914.0165937075923,914.2698706827152,0.10409213169163992,0.0,0.19292128214268073,0.20511198935704347,0.047422305161674526,1245.4040904035282,18896.91182130141
3.04152076038019,914.0750383719542,914.3209960385595,0.10458202095361314,0.0,0.1930724571614686,0.2049602565471922,0.04742142260119941,1245.2976721635832,18909.96996506285
3.0515257628814405,914.1341114131598,914.3720720094773,0.10507270388388933,0.0,0.19322387723730178,0.20480827766969825,0.04742053844183058,1245.191081423739,18923.014064202285
3.0615307653826913,914.193859872482,914.42311148688,0.10556418081336419,0.0,0.19337554247331193,0.20465605262073114,0.04741965268246245,1245.0843181118407,18936.044165990646
3.0715357678839417,914.2543330937552,914.4741309004124,0.10605645209145638,0.0,0.19352745297821108,0.20450358129075508,0.04741876532179167,1244.9773821516198,18949.060318613185
3.0815407703851925,914.3155826264415,914.5251506756732,0.10654951809165378,0.0,0.1936796088679674,0.20435086356281984,0.047417876358264825,1244.8702734614649,18962.062571216615
3.0915457728864433,914.3776620857903,914.5761956762366,0.10704337921767124,0.0,0.19383201026766575,0.20419789931066384,0.047416985790020336,1244.7629919530589,18975.050973950867
3.1015507753876936,914.4406269793602,914.6272956384256,0.10753803591035546,0.0,0.19398465731359454,0.2040446883965859,0.04741609361482336,1244.6555375298508,18988.025578009972
3.1115557778889444,914.5045344911882,914.6784855741396,0.10803348865528642,0.0,0.1941375501555423,0.20389123066910336,0.04741519982999399,1244.5479100853727,19000.986435668594
3.121560780390195,914.569443219817,914.7298061014064,0.10852973799079192,0.0,0.19429068895921972,0.20373752596048228,0.047414304432331605,1244.4401095014623,19013.933600309287
3.1315657828914456,914.635412881774,914.7813037154899,0.10902678451653969,0.0,0.19444407390885587,0.20358357408408972,0.04741340741803354,1244.3321356463662,19026.86712644604
3.1415707853926964,914.7025039774285,914.8330309792327,0.10952462890264003,0.0,0.1945977052099486,0.20342937483158874,0.04741250878260878,1244.2239883727166,19039.787069742135
3.1515757878939468,914.7707774212421,914.8850465825707,0.11002327189869673,0.0,0.1947515830919993,0.2032749279701493,0.04741160852079193,1244.1156675155337,19052.69348701557
3.1615807903951976,914.8402941483224,914.9374152925253,0.11052271434299396,0.0,0.19490570781128877,0.20312023323961714,0.04741070662645556,1244.007172890186,19065.586436238023
3.171585792896448,914.9111146982781,914.9902077848974,0.11102295717179139,0.0,0.19506007965368483,0.20296529034964936,0.04740980309252103,1243.8985042903346,19078.465976527164
3.1815907953976987,914.9832987874878,915.043500316679,0.11152400142792222,0.0,0.19521469893723997,0.20281009897706487,0.04740889791087549,1243.7896614860267,19091.332168125336
3.1915957978989495,915.0569048799633,915.0973742695353,0.1120258482688617,0.0,0.19536956601462777,0.2026546587633577,0.04740799107229321,1243.6806442219088,19104.18507236986
3.2016008004002,915.1319897582448,915.1519155750148,0.11252849897437199,0.0,0.19552468127545114,0.2024989693123414,0.047407082566360066,1243.5714522155304,19117.02475165676
3.2116058029014507,915.2086081121679,915.2072140050548,0.11303195495283837,0.0,0.19568004514815449,0.2023430301881963,0.047406172381409685,1243.4620851559403,19129.85126939207
3.221610805402701,915.2868121542066,915.2633623643407,0.11353621774636113,0.0,0.1958356581015592,0.2021868409139005,0.0474052605044703,1243.3525427025568,19142.664689934438
3.231615807903952,915.3666512577556,915.320455610995,0.11404128903495485,0.0,0.19599152064612846,0.2020304009699359,0.04740434692121882,1243.242824484232,19155.4650785325
3.2416208104052027,915.4481716367912,915.3785899135348,0.11454717063908745,0.0,0.19614763333472954,0.20187370979350652,0.04740343161594947,1243.1329300986881,19168.25250125318
3.251625812906453,915.5314160762698,915.4378616829812,0.11505386452045431,0.0,0.19630399676286156,0.2017167667782998,0.047402514571557815,1243.0228591123396,19181.027024902745
3.261630815407704,915.6164237001344,915.4983666065737,0.11556137278162724,0.0,0.19646061156854258,0.20155957127459603,0.047401595769533726,1242.9126110603665,19193.78871694509
3.271635817908954,915.7032297900756,915.5601987011753,0.11606969766406595,0.0,0.19661747843169955,0.20140212258988194,0.04740067518996834,1242.8021854471474,19206.537645415232
3.281640820410205,915.7918656673078,915.6234494248681,0.11657884154420682,0.0,0.19677459807297723,0.20124441999005732,0.047399752811577545,1242.6915817471177,19219.273878828513
3.291645822911456,915.8823586144671,915.6882068554361,0.11708880692848068,0.0,0.19693197125222078,0.201086462700972,0.047398828611733695,1242.5807994058657,19231.997486089957
3.301650825412706,915.9747318427615,915.7545549475392,0.11759959644702161,0.0,0.19708959876656162,0.2009282499103666,0.047397902566507416,1242.4698378415158,19244.708536402642
3.311655827913957,916.0690045200276,915.8225729058586,0.11811121284567067,0.0,0.19724748144798632,0.20076978077033927,0.04739697465072391,1242.3586964464869,19257.40709917571
3.3216608304152073,916.1651918314242,915.8923346581837,0.11862365897715726,0.0,0.19740562016065483,0.20061105440006627,0.047396044838024544,1242.247374589435,19270.093243934767
3.331665832916458,916.2633050706642,915.9639084256767,0.1191369377914162,0.0,0.1975640157979554,0.20045206988878947,0.04739511310093378,1242.1358716173822,19282.767040234306
3.341670835417709,916.3633517786752,916.037356425056,0.11965105232466003,0.0,0.19772266927918128,0.200292826299188,0.04739417941093572,1242.0241868581243,19295.428557573057
3.3516758379189593,916.4653359031679,916.1127346700981,0.120166005687917,0.0,0.19788158154604335,0.2001333226709154,0.04739324373855292,1241.9123196227495,19308.07786531356
3.36168084042021,916.5692579719209,916.1900928555287,0.12068180105508199,0.0,0.19804075355903258,0.19997355802428746,0.04739230605342573,1241.8002692082678,19320.715032605185
3.3716858429214605,916.6751152948387,916.2694743525337,0.12119844165021644,0.0,0.19820018629355274,0.19981353136420227,0.04739136632439622,1241.6880349004034,19333.340128312393
3.3816908454227113,916.7829021760348,916.3509162832306,0.12171593073452727,0.0,0.1983598807359534,0.19965324168416032,0.047390424519591474,1241.5756159764546,19345.953220948246
3.391695847923962,916.8926101254541,916.434449646446,0.12223427159306462,0.0,0.19851983787947297,0.19949268797037176,0.04738948060650415,1241.4630117082165,19358.554378611883
3.4017008504252124,917.004228081805,916.5200995171471,0.12275346752099542,0.0,0.19868005872005065,0.19933186920599621,0.047388534552073265,1241.3502213649917,19371.143668931807
3.4117058529264632,917.1177426373852,916.607885298819,0.12327352180966653,0.0,0.1988405442520706,0.1991707843754477,0.047387586322762375,1241.2372442166488,19383.72115901532
3.4217108554277136,917.2331382531612,916.6978209955577,0.12379443773237721,0.0,0.19900129546401185,0.19900943246879113,0.04738663588463343,1241.124079536738,19396.2869154014
3.4317158579289644,917.3503974723777,916.7899155193876,0.1243162185297802,0.0,0.19916231333398138,0.19884781248625458,0.04738568320341771,1241.0107266056873,19408.841004018996
3.441720860430215,917.4695011306998,916.8841730271798,0.12483886739507799,0.0,0.19932359882518008,0.19868592344280583,0.04738472824458338,1240.8971847140415,19421.383490151762
3.4517258629314655,917.5904285521862,916.9805932539186,0.12536238745871506,0.0,0.19948515288120786,0.19852376437288657,0.04738377097339788,1240.783453165806,19433.91443840566
3.4617308654327164,917.7131577364185,917.079171851886,0.12588678177244214,0.0,0.19964697642117113,0.19836133433534198,0.04738281135498636,1240.669531281924,19446.433912680575
3.4717358679339667,917.837665538887,917.1799007416034,0.1264120532930688,0.0,0.1998090703346897,0.19819863241844826,0.047381849354386066,1240.555418403822,19458.94197614851
3.4817408704352175,917.9639278364014,917.2827684459555,0.1269382048653257,0.0,0.19997143547662347,0.19803565774521706,0.04738088493659584,1240.4411138971404,19471.438691233936
3.4917458729364683,918.091919680746,917.3877604125138,0.12746523920354136,0.0,0.20013407266142824,0.19787240947906876,0.04737991806662167,1240.3266171557223,19483.924119596555
3.5017508754377187,918.2216154437555,917.4948593351022,0.12799315887273865,0.0,0.20029698265732743,0.19770888682968626,0.047378948709517865,1240.2119276057233,19496.39832212036
3.5117558779389695,918.3529889486983,917.6040454537481,0.12852196626831577,0.0,0.2004601661800418,0.19754508905930948,0.04737797683042421,1240.0970447100256,19508.86135890437
3.52176088044022,918.4860135899008,917.7152968348785,0.12905166359370468,0.0,0.20062362388588853,0.19738101548965692,0.047377002394599584,1239.9819679730876,19521.313289254325
3.5317658829414706,918.6206624430475,917.8285896426314,0.12958225283690686,0.0,0.20078735636452857,0.1972166655091971,0.04737602536745153,1239.866696946034,19533.754171679786
3.5417708854427215,918.7569083638782,917.9438983890951,0.130113735744985,0.0,0.2009513641310778,0.19705203858105425,0.047375045714562455,1239.7512312321867,19546.184063892906
3.551775887943972,918.8947240765134,918.0611961630585,0.13064611379540747,0.0,0.20111564761723885,0.1968871342518912,0.0473740634017131,1239.6355704932732,19558.603022806987
3.5617808904452226,919.0340822527206,918.1804548456706,0.13117938816530017,0.0,0.20128020716178155,0.1967219521614413,0.04737307839490261,1239.5197144560873,19571.01110453914
3.571785892946473,919.1749555815128,918.3016453077341,0.13171355969793372,0.0,0.2014450430001635,0.1965564920528992,0.04737209066036565,1239.4036629197456,19583.408364414856
3.5817908954477238,919.3173168302029,918.4247375871503,0.1322486288645987,0.0,0.20161015525271828,0.196390753784742,0.047371100164587704,1239.2874157639385,19595.794856971628
3.5917958979489746,919.4611388973927,918.5497010521634,0.13278459572281112,0.0,0.2017755439117036,0.196224737343689,0.04737010687431772,1239.170972957977,19608.170635965056
3.601800900450225,919.6063948576942,918.6765045491491,0.13332145987088953,0.0,0.20194120882722172,0.196058442858788,0.047369110756578243,1239.0543345706176,19620.535754377343
3.6118059029514757,919.7530579996261,918.8051165336199,0.13385922039604276,0.0,0.20210714969112611,0.19589187061751398,0.047368111778674324,1238.9375007812966,19632.89026442435
3.621810905452726,919.9011018567476,918.9355051879438,0.1343978758163782,0.0,0.20227336601904175,0.19572502108375353,0.04736710990820075,1238.8204718926706,19645.234217563568
3.631815907953977,920.0505002314255,919.0676385259618,0.13493742401814068,0.0,0.20243985713090315,0.19555789491726994,0.04736610511304691,1238.703248344192,19657.56766450488
3.6418209104552277,920.2012272130654,919.2014844840787,0.1354778621840874,0.0,0.20260662212874353,0.19539049299591646,0.04736509736140109,1238.5858307275998,19669.890655219635
3.651825912956478,920.3532571908015,919.3370110009864,0.13601918671228208,0.0,0.20277365987151155,0.19522281644082215,0.047364086621753905,1238.4682198044818,19682.203238949318
3.661830915457729,920.506564859388,919.4741860860156,0.1365613931284285,0.0,0.20294096894788227,0.1950548666435814,0.04736307286289957,1238.3504165252311,19694.505464217138
3.6718359179589792,920.6611252202765,919.6129778767305,0.1371044759863761,0.0,0.2031085476453995,0.19488664529711242,0.04736205605393701,1238.2324220505625,19706.797378837873
3.68184092046023,920.8169135779598,919.7533546872322,0.13764842875423752,0.0,0.20327639391515584,0.19471815443097773,0.0473610361642707,1238.1142377761373,19719.07902992643
3.691845922961481,920.9739055299125,919.8952850464289,0.1381932436912453,0.0,0.2034445053335984,0.1945493964495779,0.04736001316361001,1237.9958653591948,19731.350463908802
3.701850925462731,921.1320769518379,920.0387377274969,0.13873891170922684,0.0,0.2036128790595642,0.1943803741751157,0.04735898702196814,1237.8773067485015,19743.61172653178
3.711855927963982,921.291403978374,920.1836817697165,0.13928542221340148,0.0,0.2037815117849023,0.1942110908969735,0.047357957709661745,1237.7585642187812,19755.862862870512
3.7218609304652324,921.4518629776309,920.3300864914171,0.1398327629291308,0.0,0.2039503996807384,0.19404155042544785,0.04735692519730926,1237.6396404081754,19768.103917337725
3.731865932966483,921.6134305205998,920.4779214951519,0.14038091970932676,0.0,0.20411953833773988,0.19387175715148303,0.04735588945582912,1237.5205383598893,19780.334933692255
3.741870935467734,921.7760833455693,920.6271566662473,0.14092987631314674,0.0,0.2042889226974767,0.19370171611530976,0.047354850456438856,1237.4012615700458,19792.55595504478
3.7518759379689843,921.9397983162179,920.7777621633509,0.14147961416296467,0.0,0.2044585469770433,0.19353143308182252,0.047353808170653704,1237.2818140402371,19804.76702386432
3.761880940470235,922.1045523737893,920.9297084014944,0.14203011207778968,0.0,0.20462840458637555,0.19336091462326124,0.04735276257028493,1237.1622003351695,19816.968181984375
3.7718859429714855,922.270322483183,921.0829660287982,0.14258134596814573,0.0,0.204798488033616,0.19319016821384621,0.047351713627439576,1237.0424256486438,19829.15947060607
3.7818909454727363,922.4370855718962,921.2375058955682,0.143133288497768,0.0,0.20496878882018632,0.1930192023347052,0.04735066131452019,1236.922495876708,19841.340930300677
3.791895947973987,922.6048184621261,921.3932990157392,0.1436859087175058,0.0,0.20513929732723993,0.1928480265874208,0.047349605604224465,1236.8024176968217,19853.512601012295
3.8019009504752375,922.7734977951405,921.5503165215202,0.1442391716495033,0.0,0.20531000268669333,0.19267665182299967,0.04734854646954639,1236.6821986577768,19865.674522057172
3.8119059529764883,922.9430999467954,921.7085296100992,0.14479303782252914,0.0,0.20548089263710728,0.19250509028599277,0.04734748388377834,1236.5618472801746,19877.826732121142
3.8219109554777386,923.1136009353431,921.8679094823517,0.14534746277554308,0.0,0.20565195336971528,0.19233335576846822,0.047346417820513034,1236.441373163779,19889.96926925733
3.8319159579789894,923.2849763195576,922.0284272737767,0.14590239650043482,0.0,0.20582316935558756,0.1921614637828493,0.0473453482536473,1236.3207871080178,19902.10217088029
3.8419209604802402,923.4572010854449,922.190053976339,0.146457782817071,0.0,0.20599452315180072,0.19198943175574873,0.04734427515738752,1236.2001012471292,19914.225473756953
3.8519259629814906,923.6302495245753,922.3527603520185,0.14701355871328006,0.0,0.20616599519673234,0.1918172792326774,0.04734319850625532,1236.0793291928833,19926.33921399759
3.8619309654827414,923.8040951010222,922.5165168374581,0.14756965361643734,0.0,0.20633756358414176,0.1916450281039683,0.047342118275095116,1235.9584861921,19938.44342704309
3.8719359679839918,923.9787103040183,922.6812934378108,0.14812598857943124,0.0,0.20650920381069698,0.19147270285725637,0.04734103443908436,1235.837589302681,19950.53814764777
3.8819409704852426,924.1540664918631,922.8470596121713,0.14868247542970578,0.0,0.2066808885120489,0.19130033084141065,0.047339946973744274,1235.7166575776284,19962.623409861502
3.891945972986493,924.3301337241744,923.013784149608,0.14923901585357405,0.0,0.20685258717883023,0.1911279425505442,0.0473388558549529,1235.5957122630562,19974.699247008175
3.9019509754877437,924.5068805778648,923.1814350329249,0.14979550038542486,0.0,0.20702426584315745,0.1909555719375216,0.0473377610589613,1235.4747770167774,19986.765691658584
3.9119559779889945,924.6842739548244,923.3499792942863,0.15035180736425097,0.0,0.2071958867549972,0.19078325673760455,0.04733666256241136,1235.3538781339507,19998.82277560135
3.921960980490245,924.8622788811373,923.5193828629972,0.15090780185252686,0.0,0.20736740804685486,0.19061103880377542,0.047335560342355726,1235.233044780876,20010.870529810716
3.9319659829914957,925.0408582909643,923.6896104011182,0.1514633344721215,0.0,0.2075387833727325,0.19043896446779474,0.04733445437628179,1235.1123092467276,20022.908984407528
3.941970985492746,925.2199728050115,923.8606251325481,0.15201824022944632,0.0,0.20770996154374707,0.1902670849045994,0.04733334464213805,1234.99170719762,20034.93816861712
3.951975987993997,925.3995805098574,924.0323886697498,0.15257233736978074,0.0,0.20788088617279793,0.1900954564876535,0.04733223111836266,1234.8712779243629,20046.95811072466
3.9619809904952477,925.5796367290559,924.2048608321679,0.1531254262025192,0.0,0.20805149531021533,0.1899241411533206,0.047331113783916454,1234.7510645965112,20058.968838023342
3.971985992996498,925.7600937970398,924.3779994628889,0.15367728797471802,0.0,0.20822172109438938,0.18975320675025764,0.04732999261831946,1234.6311145059642,20070.970376758094
3.981990995497749,925.9409008522841,924.5517602544687,0.15422768389753072,0.0,0.20839148944981578,0.18958272734139342,0.0473288676016889,1234.5114792775144,20082.962752068357
3.991995997998999,926.1220036392855,924.7260965767616,0.15477635426148778,0.0,0.20856071981269772,0.18941278347835394,0.047327738714781915,1234.392215060181,20094.94598792426
4.00200100050025,926.3033443306689,924.9009593135322,0.15532301771912765,0.0,0.2087293249084509,0.18924346242398646,0.047326605939042504,1234.2733826823596,20106.92010705767
4.012006003001501,926.4848613973232,925.0762967270222,0.15586737090629743,0.0,0.20889721063424707,0.18907485826984646,0.04732546925664869,1234.155047733739,20118.885130895058
4.022011005502751,926.6664895163677,925.2520543431369,0.15640908834245273,0.0,0.20906427602808936,0.18890707196715412,0.047324328650563734,1234.0372805868863,20130.84107948603
4.0320160080040015,926.8481595275483,925.428174863564,0.15694782268388618,0.0,0.2092304133473499,0.18874021124829202,0.047323184104591395,1233.920156342522,20142.787971427715
4.042021010505253,927.0297984727335,925.6045981298319,0.15748320553180545,0.0,0.2093955083193941,0.18857439037621468,0.0473220356034297,1233.8037546548078,20154.72582379491
4.052026013006503,927.2113297100161,925.7812611332373,0.15801484874537894,0.0,0.2095594405488233,0.18840972973724104,0.04732088313272639,1233.6881594474473,20166.654652070774
4.0620310155077535,927.3926731092535,925.9580980745249,0.15854234630884204,0.0,0.2097220840965615,0.18824635526200426,0.047319726679137024,1233.5734585099715,20178.57447007655
4.072036018009005,927.5737453592503,926.1350404971812,0.1590652769101965,0.0,0.2098833082796466,0.1880843976256951,0.04731856623037919,1233.4597429401535,20190.485289912045
4.082041020510255,927.7544603777773,926.3120174892144,0.15958320716925065,0.0,0.2100429786724179,0.18792399124690698,0.04731740177528424,1233.347106446003,20202.38712190404
4.092046023011505,927.9347298216057,926.4889559509958,0.16009569550220407,0.0,0.21020095830513386,0.18776527308905083,0.04731623330384906,1233.2356445101186,20214.279974559086
4.102051025512757,928.1144637095017,926.6657809432307,0.1606022966561033,0.0,0.21035710907035604,0.18760838125399962,0.04731506080728103,1233.1254534091815,20226.163854531875
4.112056028014007,928.2935711404733,926.8424161062236,0.1611025667751943,0.0,0.21051129329430668,0.18745345341075464,0.04731388427803517,1233.0166291184273,20238.038766610152
4.122061030515257,928.4719610916151,927.0187841391303,0.161596068908462,0.0,0.21066337544506752,0.1873006250872675,0.047312703709848046,1232.909266120715,20249.90471370951
4.132066033016508,928.6495432851563,927.1948073382871,0.16208237883956433,0.0,0.21081322394077667,0.18715002786225926,0.04731151909776243,1232.8034561458746,20261.76169688685
4.142071035517759,928.8262290888518,927.370408175788,0.16256109096804774,0.0,0.2109607129737354,0.18700178754112137,0.04731033043813937,1232.6992868989607,20273.60971537659
4.152076038019009,929.0019324283322,927.5455099016966,0.1630318241286181,0.0,0.21110572431530908,0.18685602235101814,0.04730913772866412,1232.5968408018964,20285.4487666398
4.16208104052026,929.1765706866764,927.720037157907,0.1634942271528285,0.0,0.211248149040944,0.1867128412158679,0.04730794096834232,1232.4961937908113,20297.278846431127
4.172086043021511,929.3500655381367,927.893916573422,0.16394798379282197,0.0,0.2113878890573257,0.18657234222917238,0.047306740157481236,1232.3974142513214,20309.099948888863
4.182091045522761,929.5223437068238,928.067077329911,0.16439281699439157,0.0,0.21152485842773003,0.18643461132864977,0.047305535297663945,1232.300562094509,20320.912066636334
4.192096048024012,929.6933376320488,928.2394516865803,0.16482849239345063,0.0,0.21165898445651468,0.18629972121172178,0.047304326391715716,1232.2056880008258,20332.715190895597
4.202101050525263,929.8629859846487,928.4109754295184,0.16525482066373842,0.0,0.21179020841731458,0.1861677306072881,0.04730311344365678,1232.1128329124012,20344.509311617796
4.212106053026513,930.0312340512813,928.5815882496398,0.16567165888741048,0.0,0.2119184859781805,0.18603868385055514,0.047301896458649365,1232.0220277366354,20356.294417619178
4.222111055527764,930.1980339913047,928.7512340503838,0.16607891099481112,0.0,0.2120437873380182,0.1859126107465599,0.047300675442940865,1231.933293251073,20368.070496720837
4.232116058029014,930.3633449253585,928.9198611560595,0.166476527030228,0.0,0.21216609699889447,0.18578952679782285,0.04729945040379753,1231.846640262138,20379.83753589494
4.242121060530265,930.5271328922387,929.0874224380374,0.16686450153818033,0.0,0.21228541326556616,0.18566943370477498,0.04729822134943547,1231.7620699540462,20391.595521409286
4.252126063031516,930.689370703198,929.2538753753214,0.16724287127983903,0.0,0.21240174753724178,0.18555232007395245,0.04729698828895161,1231.6795743825687,20403.34443896758
4.262131065532766,930.8500376720257,929.4191820307256,0.16761171217898643,0.0,0.2125151233603714,0.18543816236516078,0.04729575123225071,1231.5991371353975,20415.08427384673
4.272136068034017,931.0091192573129,929.5833089614308,0.1679711357753003,0.0,0.21262557532862195,0.18532692599145334,0.04729451018997235,1231.5207340990455,20426.815011026585
4.282141070535268,931.1666066587359,929.746227090915,0.16832128545751548,0.0,0.21273314791457482,0.1852185664873893,0.04729326517342084,1231.4443342733523,20438.536635310556
4.292146073036518,931.3224963577106,929.9079115316493,0.16866233245024875,0.0,0.2128378942250118,0.18511303075370397,0.04729201619449584,1231.3699006392526,20450.249131437635
4.302151075537768,931.4767896240095,930.068341368974,0.16899447172469198,0.0,0.21293987473257978,0.1850102583256011,0.04729076326562432,1231.297391043011,20461.95248418387
4.31215607803902,931.6294920283239,930.2274994356292,0.16931791806236657,0.0,0.21303915605492377,0.1849101825935799,0.04728950639969747,1231.2267590473623,20473.646678453428
4.32216108054027,931.7806129551526,930.3853720708496,0.16963290225547603,0.0,0.21313580977618088,0.184812731981903,0.047288245610010306,1231.1579547531126,20485.331699359856
4.33216608304152,931.9301651210677,930.5419488635803,0.16993966750785183,0.0,0.21322991133068228,0.18471783106485773,0.047286980910203925,1231.0909255773677,20497.00753229627
4.3421710855427715,932.078166376757,930.697222237695,0.1702384823886981,0.0,0.21332153894362607,0.1846254016261119,0.04728571739145219,1231.0256134524402,20508.67416301093
4.352176088044022,932.2246374541471,930.8511876399922,0.17052962298212448,0.0,0.21341077256023047,0.184535363729736,0.047284460757342835,1230.9619586859867,20520.331577710072
4.362181090545272,932.3695986778646,931.0038433690177,0.17081335017838925,0.0,0.213497693181589,0.18444763638412146,0.04728321094399262,1230.8999048713524,20531.979763056854
4.3721860930465235,932.5130720792417,931.1551900004326,0.17108992609424284,0.0,0.21358238221223874,0.1843621381943094,0.04728196786512745,1230.8393953367472,20543.61870618954
4.382191095547774,932.6550810939364,931.3052301787609,0.1713596121598196,0.0,0.21366492084386482,0.18427878797826225,0.04728073143493935,1230.7803735589146,20555.248394751594
4.392196098049024,932.7956502789606,931.4539684157922,0.17162266743603322,0.0,0.2137453895332424,0.18419750528889858,0.04727950156819857,1230.722783526959,20566.868816913782
4.402201100550275,932.9348050660803,931.6014109063702,0.17187934722031098,0.0,0.21382386756962588,0.18411821084668356,0.04727827818035252,1230.6665700438223,20578.479961391342
4.412206103051526,933.0725715474024,931.7475653615752,0.17212990189043947,0.0,0.21390043271600503,0.18404082689835422,0.047277061187614725,1230.6116789762775,20590.081817458038
4.422211105552776,933.208976287086,931.8924408502426,0.17237457599044598,0.0,0.21397516092544416,0.18396527750056285,0.04727585050704107,1230.5580574525795,20601.674374954364
4.4322161080540265,933.3440461603271,932.0360476543417,0.17261360752556665,0.0,0.21404812612228605,0.18389148873865777,0.04727464605659575,1230.5056540149092,20613.257624292168
4.442221110555278,933.4778082163004,932.1783971398453,0.17284722741276007,0.0,0.2141194000316088,0.18381938889721197,0.04727344775521153,1230.4544187381834,20624.831556458044
4.452226113056528,933.6102895610368,932.3195016362214,0.17307565909673842,0.0,0.21418905206003166,0.18374890857920456,0.04727225552284066,1230.4043033130695,20636.396163012952
4.4622311155577785,933.7415172593064,932.4593743258512,0.17329911830937325,0.0,0.21425714922100147,0.18367998078072273,0.04727106928049724,1230.355261098005,20647.95143608893
4.47223611805903,933.8715182524917,932.5980291458493,0.1735178129154184,0.0,0.21432375608685786,0.1836125409388857,0.047269888950296754,1230.307247152547,20659.49736838581
4.48224112056028,934.0003192901131,932.7354806976792,0.17373194285560886,0.0,0.2143889347711087,0.18354652694955995,0.04726871445548966,1230.2602182496696,20671.033953165963
4.4922461230615305,934.1279468742636,932.871744163579,0.1739417001865604,0.0,0.2144527449407407,0.1834818791550396,0.04726754572048701,1230.2141328671266,20682.561184246413
4.502251125562781,934.2544272138948,933.0068352323447,0.17414726915938175,0.0,0.21451524384054094,0.18341854031971747,0.047266382670885045,1230.1689511704483,20694.079055991613
4.512256128064032,934.379786187548,933.1407700316478,0.17434882634398963,0.0,0.21457648633159876,0.18335645559157565,0.047265225233486835,1230.1246349860505,20705.587563305646
4.5222611305652824,934.5040493149163,933.2735650651214,0.1745465408188623,0.0,0.2146365249501151,0.18329557244337027,0.04726407333631615,1230.0811477601987,20717.086701621996
4.532266133066533,934.6272417341022,933.4052371562409,0.17474057437143878,0.0,0.214695409969516,0.18323584061051185,0.047262926908631195,1230.0384545156685,20728.57646689414
4.542271135567784,934.7493881835095,933.535803397403,0.1749310817100026,0.0,0.21475318946613078,0.18317721202538234,0.047261785880937594,1229.996521805922,20740.05685558658
4.552276138069034,934.8705129898387,933.6652811025833,0.17511821071846995,0.0,0.21480990939818745,0.18311964073833498,0.04726065018499434,1229.9553176600114,20751.5278646637
4.562281140570285,934.9906400592819,933.7936877648153,0.17530210270871388,0.0,0.21486561368404605,0.18306308283945702,0.04725951975381922,1229.9148115280095,20762.989491579327
4.572286143071536,935.1097928708293,933.9210410176408,0.1754828926645839,0.0,0.2149203442778568,0.1830074963829078,0.04725839452169561,1229.8749742282419,20774.441734267297
4.582291145572786,935.2279944736852,934.0473585994467,0.17566070951084622,0.0,0.21497414125295577,0.18295284130352005,0.04725727442417279,1229.8357778891277,20785.884591130307
4.592296148074037,935.3452674866445,934.1726583212227,0.17583567637675476,0.0,0.2150270428835986,0.18289907933506347,0.04725615939806541,1229.797195892184,20797.318061029113
4.602301150575287,935.4616340980099,934.2969580372617,0.1760079108411797,0.0,0.2150790857209723,0.18284617393423017,0.04725504938145507,1229.7592028190143,20808.742143273026
4.612306153076538,935.5771160680808,934.4202756182517,0.1761775251884879,0.0,0.2151303046725491,0.1827940902012792,0.04725394431368723,1229.7217743959786,20820.156837609284
4.622311155577789,935.6917347331375,934.5426289268911,0.17634462666109735,0.0,0.21518073308041183,0.18274279480170913,0.047252844135365984,1229.6848874395769,20831.562144212254
4.632316158079039,935.8055110090751,934.6640357956378,0.17650931768978437,0.0,0.2152304027926777,0.1826922558948329,0.04725174878835148,1229.648519806647,20842.95806367408
4.64232116058029,935.9184653963895,934.7845140063779,0.17667169612409295,0.0,0.21527934423495726,0.18264244306231753,0.0472506582157546,1229.6126503445407,20854.344596994786
4.652326163081541,936.0306179865939,934.9040812721256,0.17683185546284716,0.0,0.21532758648185116,0.1825933272366865,0.04724957236192825,1229.5772588412754,20865.721745571802
4.662331165582791,936.1419884678515,935.0227552202334,0.17698988506252852,0.0,0.21537515732157853,0.18254488063669078,0.04724849117246133,1229.5423259804747,20877.089511190792
4.672336168084042,936.2525961310234,935.140553377048,0.1771458703384601,0.0,0.21542208331837603,0.1824970767049087,0.047247414594172074,1229.5078332978649,20888.447896016616
4.682341170585293,936.362459877191,935.2574931543519,0.17729989296878176,0.0,0.21546838987576916,0.18244989004447493,0.047246342575096655,1229.4737631371647,20899.79690258328
4.692346173086543,936.4715982242957,935.3735918368725,0.17745203107879629,0.0,0.21551410129375298,0.1824032963618995,0.04724527506448055,1229.440098610225,20911.13653378508
4.702351175587793,936.5800293134968,935.4888665707701,0.1776023594137237,0.0,0.2155592408223765,0.18235727241348282,0.04724421201277064,1229.4068235596694,20922.466792868305
4.712356178089045,936.687770917002,935.6033343537748,0.17775094951536904,0.0,0.2156038307165484,0.18231179595051084,0.04724315337160235,1229.3739225206937,20933.787683421757
4.722361180590295,936.7948404451301,935.7170120261147,0.17789786988289183,0.0,0.21564789228590966,0.18226684566938256,0.047242099093788695,1229.3413806863023,20945.09920936828
4.732366183091545,936.9012549526543,935.8299162620137,0.17804318612017755,0.0,0.21569144594054795,0.18222240116589555,0.04724104913331143,1229.3091838754374,20956.40137495703
4.742371185592797,937.0070311464441,935.94206356268,0.17818696108631635,0.0,0.2157345112376834,0.18217844288856128,0.04724000344530741,1229.2773185004437,20967.69418475473
4.752376188094047,937.112185392626,936.0534702499757,0.17832925503464528,0.0,0.21577710692480548,0.18213495209546895,0.04723896198605593,1229.2457715370006,20978.97764363753
4.762381190595297,937.2167337227928,936.1641524603284,0.17847012573827467,0.0,0.21581925097861498,0.18209191081534382,0.04723792471296878,1229.2145304969788,20990.251756783764
4.7723861930965485,937.3206918411732,936.2741261398958,0.1786096286167169,0.0,0.21586096064431332,0.18204930180825885,0.04723689158457661,1229.1835834010599,21001.51652966601
4.782391195597799,937.4240751317132,936.3834070404375,0.17874781685553057,0.0,0.21590225247272596,0.18200710852851254,0.04723586256051488,1229.1529187528652,21012.771968043235
4.792396198099049,937.5268986641133,936.4920107151979,0.17888474151333,0.0,0.21594314235350373,0.18196531509142844,0.04723483760151296,1229.1225255158158,21024.01807795402
4.8024012006003,937.6291772004015,936.5999525157102,0.17902045162751587,0.0,0.21598364554793045,0.1819239062405484,0.04723381666938081,1229.0923930902711,21035.254865709325
4.812406203101551,937.7309252018256,936.7072475894387,0.1791549943168756,0.0,0.21602377672076248,0.18188286731579448,0.047232799726994054,1229.062511291344,21046.48233788503
4.822411205602801,937.8321568347094,936.813910877273,0.1792884148729395,0.0,0.21606354996857677,0.18184218422512186,0.047231786738282114,1229.0328703291457,21057.700501315503
4.832416208104052,937.9328859764223,936.9199571115835,0.17942075684802164,0.0,0.21610297884709204,0.18180184341719896,0.04723077766821552,1229.0034607897503,21068.909363087037
4.842421210605303,938.0331262219945,937.0254008152543,0.1795520621428706,0.0,0.21614207639837293,0.18176183185420478,0.04722977248279035,1228.9742736162418,21080.10893053084
4.852426213106553,938.1328908897926,937.130256300502,0.1796823710848097,0.0,0.21618085517508068,0.18172213698757939,0.04722877114901574,1228.945300091817,21091.29921121685
4.862431215607804,938.232193026949,937.2345376678999,0.17981172250116895,0.0,0.21621932726326296,0.18168274673523538,0.047227773634901604,1228.91653182391,21102.480212947823
4.872436218109055,938.3310454156228,937.3382588064759,0.179940153793822,0.0,0.21625750430549143,0.18164364945842193,0.047226779909443184,1228.8879607280742,21113.651943752742
4.882441220610305,938.4294605785005,937.4414333936097,0.18006770100619654,0.0,0.21629539752166183,0.18160483394092614,0.047225789942607656,1228.8595790134927,21124.81441188093
4.8924462231115555,938.5274507837768,937.5440748948402,0.18019439888480082,0.0,0.21633301772809105,0.1815662893699772,0.04722480370532262,1228.8313791696771,21135.96762579662
4.902451225612806,938.6250280510019,937.6461965647352,0.1803202809423255,0.0,0.21637037535710799,0.18152800531665722,0.0472238211694607,1228.8033539528215,21147.11159417286
4.912456228114057,938.7222041563999,937.7478114476602,0.18044537951520745,0.0,0.2164074804749247,0.1814899717180317,0.047222842307825946,1228.775496373357,21158.246325885877
4.9224612306153075,938.8189906375155,937.8489323782479,0.18056972581561317,0.0,0.21644434279777375,0.18145217886101322,0.04722186709414231,1228.747799684713,21169.37183001008
4.932466233116558,938.915398798591,937.9495719827856,0.18069334998455602,0.0,0.21648097170840172,0.18141461736587014,0.047220895503039206,1228.720257371831,21180.488115812448
4.942471235617809,939.011439715704,938.0497426806816,0.18081628114147516,0.0,0.21651737627146425,0.18137727817083255,0.04721992751003746,1228.692863140446,21191.595192747187
4.9524762381190595,939.107124241171,938.1494566855052,0.18093854742853424,0.0,0.21655356524728048,0.1813401525183398,0.04721896309153796,1228.665610907508,21202.693070450983
4.96248124062031,939.2024630084281,938.2487260066926,0.1810601760551159,0.0,0.2165895471056506,0.18130323194122383,0.04721800222480811,1228.6384947915628,21213.78175873799
4.972486243121561,939.2974664369887,938.3475624515621,0.18118119334065214,0.0,0.216625330039159,0.18126650824940865,0.04721704488796773,1228.6115091034908,21224.861267594675
4.982491245622811,939.3921447366574,938.4459776268366,0.18130162475262696,0.0,0.21666092197497544,0.1812299735181098,0.04721609105997759,1228.5846483382916,21235.931607175407
4.992496248124062,939.4865079119396,938.5439829405369,0.18142149494382534,0.0,0.2166963305864248,0.18119362007626652,0.04721514072062707,1228.557907167029,21246.99278779786
5.002501250625312,939.5805657667958,938.6415896044039,0.18154082778933794,0.0,0.2167315633044828,0.18115744049504756,0.047214193850519996,1228.5312804288328,21258.044819938183
5.012506253126563,939.6743279087012,938.7388086358212,0.1816596464193572,0.0,0.2167666273279632,0.18112142757766572,0.04721325043106325,1228.504763123806,21269.087714226782
5.022511255627814,939.7678037526354,938.8356508598205,0.18177797325044182,0.0,0.21680152963322988,0.181085574349667,0.047212310444455334,1228.4783504062673,21280.121481444185
5.032516258129064,939.8610025255999,938.932126911773,0.18189583001743395,0.0,0.2168362769841145,0.18104987404901451,0.04721137387367262,1228.4520375778498,21291.14613251649
5.042521260630315,939.9539332705438,939.0282472396392,0.18201323780191106,0.0,0.21687087594075666,0.1810143201172504,0.04721044070245785,1228.4258200813495,21302.16167851137
5.052526263131566,940.0466048500055,939.1240221060522,0.1821302170586089,0.0,0.21690533286781288,0.1809789061912875,0.04720951091530957,1228.3996934950146,21313.168130634258
5.062531265632816,940.1390259503529,939.2194615911509,0.18224678764281965,0.0,0.21693965394297268,0.18094362609489553,0.047208584497469036,1228.3736535266203,21324.165500224186
5.072536268134067,940.2312050855783,939.3145755950804,0.18236296883518568,0.0,0.2169738451646635,0.18090847383099726,0.047207661434908565,1228.3476960081093,21335.15379874994
5.082541270635318,940.3231506006753,939.4093738401583,0.18247877936423731,0.0,0.21700791235905484,0.18087344357466612,0.0472067417143218,1228.321816890721,21346.133037806558
5.092546273136568,940.4148706755606,939.503865873727,0.18259423742979816,0.0,0.21704186118733396,0.18083852966585162,0.047205825323111225,1228.2960122399284,21357.103229111497
5.102551275637818,940.5063733287437,939.598061070845,0.1827093607246803,0.0,0.2170756971524507,0.18080372660263658,0.04720491224937677,1228.2702782307522,21368.064384500976
5.11255627813907,940.5976664205019,939.6919686365401,0.18282416645407543,0.0,0.21710942560514437,0.180769029035211,0.04720400248190633,1228.2446111435654,21379.016515926745
5.12256128064032,940.6887576564676,939.7855976085921,0.18293867135549682,0.0,0.21714305175014473,0.1807344317596731,0.04720309601016444,1228.219007359784,21389.959635452553
5.13256628314157,940.7796545911647,939.8789568603559,0.18305289171778738,0.0,0.21717658065208273,0.18069992971211965,0.04720219282428088,1228.1934633577569,21400.893755250712
5.142571285642822,940.8703646310324,939.9720551031007,0.18316684339796774,0.0,0.21721001724072878,0.18066551796340927,0.047201292915041534,1228.1679757091254,21411.81888759904
5.152576288144072,940.9608950376767,940.0649008886684,0.18328054183816847,0.0,0.21724336631625837,0.18063119171389802,0.04720039627387813,1228.1425410751622,21422.73504487769
5.162581290645322,941.0512529312647,940.1575026123691,0.18339400208231685,0.0,0.2172766325544432,0.18059694628825002,0.04719950289285702,1228.117156203163,21433.64223956587
5.172586293146573,941.1414452934314,940.2498685154014,0.18350723879091926,0.0,0.21730982051124814,0.18056277713084135,0.04719861276467032,1228.0918179232538,21444.540484238973
5.182591295647824,941.2314789702124,940.3420066873598,0.18362026625539926,0.0,0.21734293462729112,0.18052867980130174,0.0471977258826265,1228.066523145289,21455.429791565733
5.192596298149074,941.3213606752834,940.4339250691493,0.18373309841277088,0.0,0.21737597923240923,0.18049464996994996,0.047196842240639775,1228.041268855681,21466.31017430508
5.202601300650325,941.41109699276,940.5256314554609,0.18384574885864968,0.0,0.21740895854970627,0.18046068341374735,0.04719596183322108,1228.0160521145876,21477.181645303506
5.212606303151576,941.5006943798602,940.6171334971456,0.1839582308594931,0.0,0.21744187669936066,0.18042677601249096,0.047195084655469836,1227.990870053266,21488.0442174924
5.222611305652826,941.5901591699592,940.708438704078,0.1840705573654246,0.0,0.21747473770261763,0.18039292374482327,0.04719421070306365,1227.9657198713016,21498.897903885198
5.232616308154077,941.6794975752905,940.7995544476731,0.1841827410217607,0.0,0.21750754548537615,0.18035912268464602,0.04719333997224955,1227.9405988341143,21509.742717574823
5.242621310655328,941.7687156893894,940.8904879631446,0.18429479417952643,0.0,0.21754030388146092,0.1803253689978492,0.04719247245983639,1227.915504270689,21520.578671731277
5.252626313156578,941.8578194899394,940.9812463522699,0.18440672890664983,0.0,0.21757301663610829,0.1802916589388272,0.04719160816318523,1227.8904335711536,21531.405779599005
5.262631315657829,941.946814841369,941.0718365859113,0.18451855699815004,0.0,0.21760568740913763,0.18025798884730784,0.047190747080200754,1227.865384184577,21542.224054494465
5.272636318159079,942.0357074971373,941.1622655062084,0.18463028998533026,0.0,0.2176383197778129,0.1802243551454923,0.047189889209324105,1227.840353616983,21553.033509803907
5.28264132066033,942.1245031023385,941.252539829178,0.1847419391454177,0.0,0.21767091723984452,0.18019075433505416,0.04718903454952419,1227.8153394292672,21563.834158980964
5.292646323161581,942.2132071962067,941.3426661472325,0.1848535155106743,0.0,0.2177034832162273,0.1801571829943031,0.04718818310028911,1227.7903392352266,21574.62601554436
5.302651325662831,942.3018252142725,941.432650931323,0.1849650298764606,0.0,0.21773602105375062,0.18012363777567514,0.04718733486161956,1227.765350699817,21585.409093075814
5.312656328164082,942.3903624907271,941.5225005333499,0.18507649280952942,0.0,0.2177685340275821,0.18009011540315067,0.047186489834020746,1227.740371537362,21596.183405217893
5.3226613306653325,942.4788242608277,941.6122211886576,0.18518791465617954,0.0,0.2178010253438079,0.18005661266971493,0.0471856480184943,1227.7153995097892,21606.948965671792
5.332666333166583,942.5672156629512,941.7018190181358,0.18529930554938429,0.0,0.21783349814165318,0.18002312643513863,0.04718480941653162,1227.6904324250906,21617.705788195464
5.342671335667834,942.6555417407296,941.7913000304434,0.1854106754159272,0.0,0.21786595549570464,0.17998965362375627,0.047183974030106976,1227.665468135779,21628.453886601554
5.3526763381690845,942.7438074453432,941.8806701244434,0.18552203398367192,0.0,0.21789840041817707,0.17995619122220102,0.0471831418616694,1227.640504537319,21639.193274755435
5.362681340670335,942.8320176374904,941.9699350912772,0.18563339078793098,0.0,0.21793083586089732,0.17992273627742156,0.04718231291413644,1227.6155395667492,21649.923966573326
5.372686343171585,942.9201770893163,942.0591006164078,0.1857447551776133,0.0,0.21796326471721997,0.17988928589476708,0.04718148719088784,1227.590571201354,21660.645976020543
5.3826913456728365,943.0082904865809,942.1481722819692,0.18585613632168682,0.0,0.21799568982404216,0.17985583723597381,0.04718066469575802,1227.5655974572667,21671.359317109578
5.392696348174087,943.0963624305515,942.2371555688094,0.18596754321489892,0.0,0.21802811396358693,0.1798223875173826,0.04717984543302975,1227.5406163882344,21682.064003898355
5.402701350675337,943.1843974397602,942.3260558583813,0.18607898468311185,0.0,0.21806053986506585,0.17978893400827686,0.04717902940742864,1227.5156260844642,21692.760050488632
5.412706353176588,943.2723999520261,942.4148784349752,0.18619046938900277,0.0,0.21809297020645696,0.179755474029106,0.04717821662411603,1227.490624671391,21703.44747102423
5.422711355677839,943.3603743262785,942.5036284877242,0.1863020058372543,0.0,0.21812540761612315,0.17972200494986748,0.047177407088682795,1227.4656103085574,21714.126279689397
5.432716358179089,943.4483248441743,942.5923111123776,0.1864136023791888,0.0,0.21815785467425697,0.1796885241886632,0.047176600807144344,1227.44058118861,21724.79649070731
5.44272136068034,943.5362557119633,942.6809313133864,0.18652526721779947,0.0,0.2181903139144501,0.17965502921013077,0.04717579778593405,1227.4155355362147,21735.458118338473
5.452726363181591,943.6241710622384,942.7694940058633,0.18663700841243616,0.0,0.21822278782515522,0.17962151752398242,0.04717499803189728,1227.3904716070429,21746.111176879185
5.462731365682841,943.7120749554505,942.8580040172728,0.18674883388292354,0.0,0.21825527885097018,0.17958798668372178,0.047174201552286625,1227.365387686881,21756.755680660128
5.4727363681840915,943.7999713816039,942.9464660893475,0.18686075141393177,0.0,0.21828778939400154,0.17955443428528098,0.04717340835475605,1227.3402820906883,21767.391644044925
5.482741370685343,943.8878642619334,943.034884879997,0.18697276865923027,0.0,0.2183203218151927,0.1795208579656935,0.04717261844735506,1227.3151531616747,21778.01908142869
5.492746373186593,943.97575745034,943.1232649649328,0.18708489314537963,0.0,0.21835287843547482,0.17948725540194385,0.04717183183852418,1227.2899992705063,21788.63800723672
5.5027513756878434,944.0636547349219,943.2116108394157,0.1871971322755359,0.0,0.2183854615369545,0.17945362430978049,0.047171048537089706,1227.2648188144803,21799.24843592319
5.512756378189095,944.1515598395706,943.2999269201001,0.18730949333328212,0.0,0.21841807336411026,0.17941996244252084,0.04717026855225815,1227.2396102167004,21809.850381969773
5.522761380690345,944.2394764253462,943.3882175466074,0.18742198348599928,0.0,0.21845071612484387,0.17938626758999957,0.0471694918936118,1227.214371925345,21820.443859884443
5.532766383191595,944.3274080918488,943.4764869831122,0.18753460978812567,0.0,0.21848339199149808,0.17935253757755243,0.04716871857110414,1227.1891024129654,21831.028884200277
5.542771385692847,944.4153583787379,943.5647394201098,0.18764737918466465,0.0,0.21851610310195213,0.17931877026492096,0.047167948595054535,1227.1638001757274,21841.605469474172
5.552776388194097,944.5033307670425,943.6529789759414,0.18776029851421114,0.0,0.21854885156056666,0.17928496354530876,0.047167181976143835,1227.1384637327574,21852.173630285743
5.562781390695347,944.5913286804075,943.741209698243,0.18787337451183417,0.0,0.21858163943908326,0.1792511153444819,0.04716641872541047,1227.113091625519,21862.733381236176
5.572786393196598,944.679355486512,943.829435565615,0.1879866138121838,0.0,0.21861446877759547,0.17921722361979922,0.04716565885424531,1227.0876824171423,21873.284736947095
5.582791395697849,944.7674144983306,943.9176604891037,0.18810002295229816,0.0,0.21864734158542534,0.17918328635933595,0.04716490237438749,1227.0622346918183,21883.82771205952
5.592796398199099,944.8555089752722,944.0058883135376,0.18821360837412907,0.0,0.21868025984191186,0.17914930158109615,0.047164149297920774,1227.036747054251,21894.36232123279
5.60280140070035,944.9436421244912,944.094122819084,0.1883273764273087,0.0,0.21871322549727568,0.17911526733214847,0.047163399637268975,1227.011218129062,21904.888579143557
5.612806403201601,945.0318171020976,944.1823677226827,0.18844133337173108,0.0,0.21874624047342583,0.1790811816878202,0.04716265340519173,1226.985646560231,21915.406500484758
5.622811405702851,945.120037014213,944.2706266792975,0.18855548537978878,0.0,0.21877930666465792,0.17904704275099936,0.0471619106147813,1226.9600310106148,21925.916099964692
5.632816408204102,945.2083049181695,944.3589032833472,0.18866983853884076,0.0,0.2188124259384257,0.179012848651364,0.047161171279458285,1226.9343701614112,21936.417392306037
5.642821410705353,945.296623823669,944.4472010700904,0.18878439885358747,0.0,0.2188456001360833,0.17897859754464018,0.047160435412967654,1226.9086627116492,21946.910392244925
5.652826413206603,945.3849966937731,944.5355235168108,0.18889917224806507,0.0,0.21887883107350842,0.1789442876119798,0.04715970302937561,1226.8829073777551,21957.395114530074
5.662831415707854,945.4734264459912,944.62387404412,0.18901416456785178,0.0,0.21891212054179154,0.17890991705927134,0.04715897414306592,1226.8571028930783,21967.871573921904
5.672836418209104,945.5619159533828,944.7122560172877,0.18912938158220796,0.0,0.21894547030790562,0.17887548411647108,0.047158248768735936,1226.8312480074273,21978.339785191652
5.682841420710355,945.6504680455008,944.8006727473759,0.1892448289859399,0.0,0.21897888211528843,0.17884098703702125,0.04715752692139369,1226.805341486668,21988.799763120594
5.692846423211606,945.7390855093707,944.8891274924184,0.1893605124013136,0.0,0.21901235768444033,0.1788064240972525,0.047156808616354615,1226.7793821123107,21999.251522499202
5.702851425712856,945.8277710905342,944.9776234586892,0.18947643738002215,0.0,0.21904589871354022,0.1787717935957687,0.04715609386923777,1226.7533686810837,22009.69507812637
5.712856428214107,945.9165274939527,945.0661638017956,0.18959260940490508,0.0,0.21907950687898275,0.17873709385290987,0.047155382695962984,1226.7273000045627,22020.130444808656
5.722861430715358,946.0053573848891,945.1547516277436,0.18970903389163063,0.0,0.2191131838359042,0.17870232321022717,0.047154675112748054,1226.701174908808,22030.55763735952
5.732866433216608,946.0942633898899,945.2433899941403,0.18982571619049596,0.0,0.2191469312187458,0.17866748002991972,0.047153971136105116,1226.6749922339743,22040.976670598608
5.742871435717859,946.1832480976527,945.3320819112457,0.1899426615880255,0.0,0.21918075064175363,0.1786325626943352,0.04715327078283782,1226.6487508339665,22051.38755935105
5.7528764382191095,946.2723140598215,945.4208303429449,0.1900598753084375,0.0,0.21921464369943686,0.1785975696055121,0.047152574070038915,1226.6224495761228,22061.790318446772
5.76288144072036,946.3614637919084,945.5096382078729,0.19017736251531012,0.0,0.21924861196708928,0.17856249918465844,0.047151881015086924,1226.5960873408549,22072.184962719813
5.77288644322161,946.4506997741189,945.5985083804266,0.19029512831304907,0.0,0.21928265700124858,0.17852734987169325,0.04715119163564327,1226.5696630213295,22082.57150700769
5.7828914457228615,946.5400244520881,945.687443691666,0.19041317774821048,0.0,0.21931678034010949,0.17849212012483323,0.04715050594965017,1226.543175523185,22092.949966150758
5.792896448224112,946.6294402377251,945.7764469303485,0.19053151581099367,0.0,0.21935098350399151,0.1784568084201261,0.0471498239753276,1226.5166237642068,22103.32035499159
5.802901450725362,946.7189495100051,945.8655208439052,0.19065014743661965,0.0,0.21938526799576993,0.1784214132510194,0.04714914573117046,1226.490006674031,22113.682688374396
5.8129064532266135,946.8085546156566,945.9546681392844,0.1907690775065307,0.0,0.21941963530125103,0.17838593312798595,0.047148471235946676,1226.4633231938853,22124.036981144403
5.822911455727864,946.8982578699289,946.0438914838958,0.19088831084972366,0.0,0.21945408688958923,0.1783503665781068,0.04714780050869446,1226.4365722762998,22134.38324814733
5.832916458229114,946.9880615573504,946.1331935065455,0.19100785224404576,0.0,0.21948862421369306,0.17831471214466593,0.04714713356871957,1226.4097528848285,22144.721504228786
5.8429214607303654,947.0779679323762,946.2225767982384,0.19112770641728852,0.0,0.21952324871056694,0.17827896838680857,0.04714647043559348,1226.3828639938115,22155.0517642338
5.852926463231616,947.1679792200822,946.31204391303,0.19124787804838334,0.0,0.21955796180168544,0.17824313387916735,0.047145811129151026,1226.3559045881186,22165.374043006235
5.862931465732866,947.2580976168847,946.4015973689195,0.19136837176859417,0.0,0.2195927648933668,0.17820720721148905,0.047145155669487744,1226.3288736628901,22175.688355388305
5.8729364682341165,947.3483252911604,946.4912396486187,0.19148919216255955,0.0,0.21962765937709885,0.178171186988309,0.04714450407695801,1226.3017702233126,22185.994716220077
5.882941470735368,947.4386643838726,946.5809732003197,0.19161034376935326,0.0,0.2196626466298708,0.17813507182861965,0.04714385637217314,1226.2745932843893,22196.293140339018
5.892946473236618,947.5291170092479,946.6708004385422,0.19173183108358163,0.0,0.219697728014517,0.178098860365527,0.04714321257599878,1226.247341870704,22206.583642579477
5.9029514757378685,947.6196852553758,946.7607237448717,0.19185365855639086,0.0,0.21973290488003222,0.17806255124593576,0.04714257270955304,1226.2200150162023,22216.866237772272
5.91295647823912,947.7103711847667,946.8507454686536,0.19197583059635948,0.0,0.21976817856185057,0.1780261431302705,0.04714193679420493,1226.1926117639991,22227.14094074423
5.92296148074037,947.8011768349943,946.940867927791,0.19209835157056704,0.0,0.21980355038218044,0.17798963469214102,0.04714130485157188,1226.165131166149,22237.40776631777
5.9329664832416205,947.8921042192686,947.0310934094541,0.19222122580553702,0.0,0.21983902165029964,0.1779530246180477,0.04714067690351785,1226.137572283441,22247.666729310473
5.942971485742872,947.9831553269448,947.121424170716,0.19234445758802424,0.0,0.21987459366280146,0.17791631160713553,0.04714005297215205,1226.1099341852296,22257.91784453468
5.952976488244122,948.0743321241189,947.2118624392915,0.19246805116600302,0.0,0.2199102677039044,0.17787949437088443,0.04713943307982664,1226.08221594922,22268.161126797106
5.962981490745372,948.1656365541761,947.3024104142193,0.19259201074955032,0.0,0.21994604504572854,0.17784257163283346,0.047138817249134796,1226.0544166612785,22278.396590898457
5.972986493246623,948.2570705382708,947.3930702664571,0.19271634051162123,0.0,0.219981926948538,0.17780554212833832,0.047138205502909626,1226.0265354152657,22288.624251633053
5.982991495747874,948.3486359758642,947.4838441395545,0.192841044588888,0.0,0.2200179146610038,0.17776840460430895,0.047137597864222065,1225.9985713128528,22298.844123788465
5.992996498249124,948.4403347452512,947.5747341503074,0.19296612708259853,0.0,0.2200540094204727,0.17773115781894064,0.047136994356379046,1225.9705234633386,22309.05622214518
6.003001500750375,948.5321687040129,947.6657423893203,0.1930915920592886,0.0,0.22009021245319013,0.1776938005414917,0.04713639500292234,1225.9423909834943,22319.26056147625
6.013006503251626,948.6241396895063,947.7568709216174,0.19321744355157114,0.0,0.22012652497454663,0.17765633155203667,0.04713579982762688,1225.9141729973937,22329.457156546952
6.023011505752876,948.7162495193659,947.8481217872675,0.19334368555892073,0.0,0.22016294818932428,0.1776187496412206,0.04713520885449887,1225.8858686362428,22339.64602211449
6.033016508254127,948.8084999919366,947.9394970019215,0.1934703220483732,0.0,0.2201994832919153,0.1775810536100404,0.04713462210777462,1225.85747703823,22349.827172927675
6.043021510755377,948.9008928867154,948.0309985573632,0.19359735695522093,0.0,0.2202361314665393,0.17754324226962773,0.04713403961191919,1225.8289973483743,22360.00062372663
6.053026513256628,948.993429964825,948.1226284221026,0.19372479418374808,0.0,0.22027289388747412,0.17750531444101847,0.04713346139162458,1225.8004287183687,22370.166389242466
6.063031515757879,949.086112969435,948.2143885418934,0.1938526376079269,0.0,0.22030977171927335,0.1774672689549354,0.04713288747180848,1225.7717703064277,22380.32448419706
6.073036518259129,949.1789436261546,948.3062808402294,0.1939808910720073,0.0,0.22034676611695062,0.17742910465160378,0.04713231787761319,1225.74302127716,22390.47492330271
6.08304152076038,949.2719236434874,948.3983072189072,0.19410955839125674,0.0,0.22038387822621167,0.17739082038051981,0.047131752634403876,1225.7141808014107,22400.617721261937
6.093046523261631,949.3650547132283,948.49046955852,0.19423864335258104,0.0,0.2204211091836485,0.17735241500025656,0.047131191767767304,1225.6852480561251,22410.752892767166
6.103051525762881,949.458338510829,948.5827697189138,0.19436814971510114,0.0,0.22045846011691936,0.1773138873782837,0.04713063530351102,1225.6562222242253,22420.88045250051
6.113056528264132,949.5517766958193,948.675209539711,0.19449808121081857,0.0,0.22049593214495766,0.17727523639075948,0.047130083267661604,1225.6271024944654,22431.000415133545
6.123061530765383,949.645370912189,948.7677908407865,0.19462844154523512,0.0,0.22053352637816573,0.17723646092233658,0.04712953568646345,1225.5978880612984,22441.112795327026
6.133066533266633,949.739122788729,948.8605154226897,0.1947592343978724,0.0,0.22057124391857683,0.17719755986600014,0.04712899258637803,1225.5685781247641,22451.217607730687
6.143071535767883,949.833033939418,948.9533850671273,0.19489046342290078,0.0,0.2206090858600525,0.177158532122871,0.047128453994082393,1225.539171890353,22461.314866983048
6.153076538269135,949.9271059637904,949.0464015374208,0.195022132249717,0.0,0.2206470532884634,0.17711937660202462,0.047127919936467866,1225.5096685688802,22471.404587711153
6.163081540770385,950.0213404472589,949.1395665789045,0.19515424448346966,0.0,0.22068514728185307,0.17708009222032764,0.04712739044063934,1225.4800673763748,22481.4867845304
6.173086543271635,950.1157389614663,949.232881919364,0.19528680370560356,0.0,0.2207233689106086,0.1770406779022672,0.04712686553391406,1225.4503675339595,22491.561472044308
6.1830915457728866,950.2103030646401,949.3263492694769,0.19541981347444348,0.0,0.22076171923764334,0.17700113257976827,0.04712634524382026,1225.4205682677255,22501.628664844393
6.193096548274137,950.3050343018987,949.4199703231905,0.195553277325677,0.0,0.22080019931854775,0.17696145519204315,0.047125829598096435,1225.3906688086286,22511.688377509898
6.203101550775387,950.3999342055708,949.5137467581202,0.195687198772863,0.0,0.22083881020174814,0.17692164468543248,0.04712531862469043,1225.3606683923783,22521.74062460767
6.2131065532766385,950.4950042955375,949.6076802359696,0.19582158130799737,0.0,0.2208775529286844,0.1768817000132281,0.04712481235175797,1225.3305662593173,22531.785420691973
6.223111555777889,950.5902460795206,949.7017724028931,0.1959564284019596,0.0,0.22091642853394908,0.17684162013553356,0.04712431080766199,1225.3003616543224,22541.822780304323
6.233116558279139,950.6856610533816,949.7960248898577,0.19609174350501885,0.0,0.22095543804544526,0.17680140401910655,0.047123814020971905,1225.2700538266977,22551.852717973306
6.24312156078039,950.7812507014387,949.8904393130422,0.1962275300473355,0.0,0.22099458248454423,0.17676105063720118,0.04712332202046215,1225.2396420300647,22561.875248214455
6.253126563281641,950.877016496751,949.9850172741843,0.19636379143942562,0.0,0.2210338628662305,0.17672055896942349,0.04712283483511152,1225.2091255222624,22571.890385530107
6.263131565782891,950.9729599013879,950.0797603609135,0.19650053107260967,0.0,0.22107328019924133,0.17667992800159124,0.04712235249410249,1225.1785035652508,22581.898144409202
6.273136568284142,951.0690823667313,950.1746701471244,0.19663775231950373,0.0,0.22111283548622118,0.17663915672558017,0.04712187502681999,1225.1477754250036,22591.898539327216
6.283141570785393,951.1653853337492,950.2697481933137,0.19677545853447032,0.0,0.22115252972386246,0.17659824413918307,0.04712140246285054,1225.1169403714111,22601.891584745976
6.293146573286643,951.2618702332437,950.3649960468853,0.19691365305402556,0.0,0.22119236390303218,0.17655718924598307,0.04712093483198179,1225.0859976781937,22611.87729511356
6.3031515757878935,951.3585384861354,950.4604152424992,0.19705233919731907,0.0,0.2212323390089227,0.17651599105520324,0.04712047216420134,1225.0549466227958,22621.855684864164
6.313156578289145,951.4553915037263,950.5560073023967,0.19719152026657227,0.0,0.22127245602118822,0.17647464858156967,0.04712001448969586,1225.023786486293,22631.826768417995
6.323161580790395,951.5524306879362,950.6517737366871,0.19733119954747144,0.0,0.22131271591406787,0.17643316084518917,0.047119561838850695,1224.9925165533057,22641.790560181133
6.3331665832916455,951.64965743156,950.7477160436672,0.197471380309596,0.0,0.22135311965651913,0.17639152687141502,0.04711911424224879,1224.961136111908,22651.747074545452
6.343171585792896,951.7470731185268,950.8438357101352,0.19761206580686974,0.0,0.22139366821235945,0.17634974569070608,0.04711867173066983,1224.9296444535291,22661.69632588851
6.353176588294147,951.8446791241207,950.9401342116633,0.1977532592779184,0.0,0.2214343625403775,0.1763078163385154,0.04711823433508973,1224.8980408728762,22671.63832857345
6.3631815907953975,951.9424768152217,951.0366130128908,0.19789496394649556,0.0,0.2214752035944659,0.1762657378551571,0.047117802086679934,1224.866324667842,22681.573096948865
6.373186593296648,952.0404675505508,951.133273567824,0.198037183021893,0.0,0.22151619232375025,0.1762235092856779,0.047117375016806295,1224.8344951394176,22691.500645348788
6.383191595797899,952.1386526808856,951.2301173200983,0.19817991969932022,0.0,0.22155732967270717,0.176181129679739,0.04711695315702873,1224.8025515916086,22701.420988092545
6.393196598299149,952.2370335492781,951.3271457032454,0.19832317716026496,0.0,0.22159861658127641,0.17613859809150367,0.047116536539100536,1224.770493331358,22711.33413948468
6.4032016008004,952.3356114912929,951.4243601409813,0.19846695857292732,0.0,0.22164005398499753,0.1760959135795011,0.047116125194967405,1224.7383196684525,22721.240113814896
6.413206603301651,952.4343878352131,951.5217620474572,0.19861126709256624,0.0,0.22168164281511715,0.17605307520651853,0.04711571915676685,1224.7060299154468,22731.138925357987
6.423211605802901,952.5333639022422,951.6193528275052,0.19875610586185127,0.0,0.22172338399869904,0.17601008203949184,0.04711531845682789,1224.673623387589,22741.030588373742
6.433216608304152,952.6325410067291,951.7171338769105,0.19890147801126182,0.0,0.22176527845874894,0.17596693314938017,0.04711492312766988,1224.641099402733,22750.91511710688
6.443221610805402,952.7319204563693,951.8151065826561,0.1990473866594511,0.0,0.22180732711432813,0.17592362761105268,0.047114533202002006,1224.60845728126,22760.792525787034
6.453226613306653,952.8315035523943,951.913272323149,0.19919383491357306,0.0,0.2218495308806551,0.17588016450318683,0.04711414871272301,1224.5756963460074,22770.662828628625
6.463231615807904,952.9312915897801,952.0116324684764,0.19934082586965593,0.0,0.2218918906692226,0.17583654290815126,0.04711376969292013,1224.5428159221894,22780.526039830856
6.473236618309154,953.0312858574443,952.1101883806407,0.19948836261295824,0.0,0.22193440738790865,0.17579276191189475,0.04711339617586852,1224.5098153373197,22790.38217357765
6.483241620810405,953.1314876384242,952.208941413774,0.19963644821829174,0.0,0.22197708194107707,0.1757488206038458,0.04711302819503097,1224.47669392114,22800.23124403759
6.493246623311656,953.2318982100721,952.3078929143754,0.19978508575036621,0.0,0.22201991522968523,0.17570471807680482,0.04711266578405707,1224.4434510055469,22810.073265363873
6.503251625812906,953.3325188442473,952.4070442215394,0.19993427826415622,0.0,0.22206290815139862,0.17566045342682932,0.04711230897678241,1224.4100859245127,22819.908251694305
6.513256628314157,953.433350807481,952.5063966671563,0.20008402880517265,0.0,0.22210606160067542,0.1756160257531499,0.047111957807228454,1224.3765980140258,22829.736217151203
6.523261630815408,953.534395361165,952.605951576136,0.20023434040984003,0.0,0.222149376468884,0.1755714341580519,0.04711161230960175,1224.3429866120102,22839.557175841415
6.533266633316658,953.6356537617311,952.7057102666245,0.20038521610581297,0.0,0.2221928536444021,0.1755266777467769,0.04711127251829315,1224.3092510582555,22849.37114185625
6.543271635817908,953.7371272608167,952.8056740502004,0.20053665891228734,0.0,0.22223649401271364,0.1754817556274257,0.0471109384678775,1224.2753906943508,22859.17812927148
6.55327663831916,953.838817105432,952.9058442320767,0.20068867184030198,0.0,0.22228029845650246,0.17543666691086418,0.04711061019311319,1224.2414048636197,22868.97815214728
6.56328164082041,953.9407245381366,953.006222111311,0.2008412578930761,0.0,0.22232426785575843,0.17539141071061773,0.04711028772894121,1224.207292911046,22878.771224528235
6.57328664332166,954.0428507972005,953.1068089809958,0.20099442006631452,0.0,0.22236840308787187,0.17534598614277638,0.047109971110484844,1224.1730541832083,22888.557360443323
6.583291645822912,954.1451971167584,953.2076061284433,0.20114816134848723,0.0,0.22241270502772084,0.17530039232590752,0.04710966037304928,1224.13868802822,22898.33657390584
6.593296648324162,954.2477647269795,953.3086148353879,0.2013024847211554,0.0,0.22245717454777317,0.17525462838095415,0.04710935555212073,1224.1041937956584,22908.10887891347
6.603301650825412,954.3505548542237,953.4098363781686,0.20145739315928188,0.0,0.22250181251818302,0.17520869343113774,0.04710905668336602,1224.069570836497,22917.87428944822
6.613306653326664,954.4535687211849,953.5112720279033,0.20161288963147972,0.0,0.22254661980686816,0.17516258660188133,0.047108763802632306,1224.0348185030527,22927.6328194764
6.623311655827914,954.5568075470558,953.612923050679,0.20176897710034752,0.0,0.22259159727961486,0.17511630702070452,0.04710847694594622,1223.9999361489129,22937.384482948655
6.633316658329164,954.6602725476746,953.7147907077293,0.20192565852274738,0.0,0.22263674580016463,0.1750698538171365,0.04710819614951337,1223.9649231288745,22947.129293799953
6.643321660830415,954.7639649356643,953.8168762555968,0.20208293685005452,0.0,0.22268206623029144,0.17502322612263888,0.04710792144971814,1223.9297787988908,22956.867265949557
6.653326663331666,954.8678859205858,953.9191809463138,0.2022408150284785,0.0,0.22272755942990238,0.17497642307050496,0.04710765288312291,1223.894502516002,22966.598413301028
6.663331665832916,954.9720367090827,954.021706027574,0.20239929599933415,0.0,0.2227732262571221,0.17492944379577527,0.0471073904864674,1223.8590936382757,22976.322749742278
6.673336668334167,955.0764185050142,954.124452742887,0.20255838269929943,0.0,0.22281906756837289,0.17488228743515746,0.04710713429666857,1223.8235515247525,22986.040289145512
6.683341670835418,955.1810325095975,954.2274223317468,0.20271807806068773,0.0,0.22286508421845955,0.1748349531269411,0.047106884350819916,1223.787875535386,22995.75104536726
6.693346673336668,955.2858799215492,954.3306160297972,0.2028783850117455,0.0,0.22291127706066252,0.1747874400109048,0.047106640686190734,1223.7520650309789,23005.455032248396
6.703351675837919,955.3909619372124,954.434035068981,0.2030393064768743,0.0,0.22295764694680686,0.1747397472282471,0.047106403340225936,1223.716119373133,23015.152263614145
6.71335667833917,955.4962797506926,954.5376806776985,0.20320084537692235,0.0,0.22300419472735272,0.1746918739214956,0.04710617235054558,1223.6800379241906,23024.84275327408
6.72336168084042,955.6018345539898,954.6415540809636,0.20336300462943013,0.0,0.2230509212514727,0.1746438192344301,0.047105947754943985,1223.6438200471762,23034.526515022153
6.7333666833416705,955.7076275371261,954.7456565005505,0.20352578714888978,0.0,0.22309782736713205,0.17459558231200176,0.04710572959138953,1223.607465105743,23044.203562636732
6.743371685842921,955.8136598882703,954.84998915514,0.20368919584699124,0.0,0.22314491392116528,0.17454716230025663,0.047105517898024245,1223.5709724641197,23053.87390988057
6.753376688344172,955.9199327938682,954.9545532604712,0.203853233632883,0.0,0.22319218175935807,0.17449855834625386,0.047105312713163004,1223.5343414870538,23063.537570500877
6.7633816908454225,956.0264474387633,955.0593500294826,0.20401790341341677,0.0,0.223239631726523,0.17444976959798952,0.0471051140752931,1223.4975715397577,23073.194558229316
6.773386693346673,956.1332050063153,955.1643806724485,0.2041832080933689,0.0,0.22328726466656834,0.1744007952043279,0.04710492202307407,1223.4606619878614,23082.84488678203
6.783391695847924,956.2402066785257,955.2696463971249,0.20434915057570857,0.0,0.22333508142258215,0.1743516343149173,0.04710473659533676,1223.4236121973554,23092.48856985968
6.7933966983491745,956.3474536361527,955.3751484088856,0.20451573376182228,0.0,0.2233830828369022,0.17430228608012016,0.047104557831082916,1223.3864215345397,23102.125621147472
6.803401700850425,956.4549470588282,955.480887910852,0.20468296055174856,0.0,0.2234312697511884,0.17425274965094015,0.04710438576948499,1223.349089365976,23111.75605431519
6.813406703351676,956.5626881251727,955.5868661040315,0.20485083384440858,0.0,0.22347964300649548,0.1742030241789499,0.047104220449885326,1223.3116150584344,23121.379883017205
6.8234117058529264,956.6706780129091,955.6930841874473,0.20501935653783093,0.0,0.22352820344334265,0.1741531088162207,0.04710406191179558,1223.2739979788475,23130.997120892556
6.833416708354177,956.7789178989734,955.7995433582645,0.2051885315293856,0.0,0.22357695190178636,0.17410300271525,0.047103910194896535,1223.2362374942588,23140.607781564937
