z,T,t,fs,fl,x,y,w,rhob,p
0.0,634.4167940943564,505.0,0.0,0.0,0.1609076820580151,0.23690030013030552,0.047731399172107086,1268.0,14330.0
0.010005002501250625,642.8903979615782,518.0167931945889,2.677892887779918e-05,0.0,0.16091598975881188,0.23689199242932454,0.047731399171815826,1267.9942093242594,14341.232464032482
0.02001000500250125,651.0474224122288,530.528145351845,5.7610395370472905e-05,0.0,0.16092555468921743,0.2368824274985007,0.04773139917115434,1267.9875423275819,14352.6903248085
0.030015007503751877,658.9025160501238,542.558921669893,9.267724818737904e-05,0.0,0.16093643357456394,0.23687154861226645,0.04773139916975052,1267.9799594705582,14364.365529822973
0.0400200100050025,666.4694376484039,554.1323462217098,0.00013213559725541022,0.0,0.16094867484468398,0.2368593073403721,0.04773139916694483,1267.9714269956155,14376.250272394273
0.05002501250625312,673.7611267513493,565.2701454150607,0.0001761161852918166,0.0,0.1609623190592749,0.23684566312241925,0.04773139916162845,1267.9619166303398,14388.336986480152
0.060030015007503754,680.7897673334,575.9926757022097,0.00022472601048838652,0.0,0.16097739941111444,0.2368305827645055,0.04773139915202303,1267.9514052364664,14400.618341191575
0.07003501750875438,687.5668453175626,586.3190376105597,0.00027805008980622133,0.0,0.16099394227283945,0.23681403989226416,0.047731399135393246,1267.9398744284256,14413.087235095038
0.080040020010005,694.1032006508043,596.2671778493659,0.0003361532797910586,0.0,0.1610119677615054,0.2367960143860773,0.047731399107686645,1267.9273101794129,14425.736790376504
0.09004502251125562,700.409074544345,605.8539809863972,0.0003990820940792816,0.0,0.16103149030205235,0.2367764918173336,0.04773139906309819,1267.9137024281335,14438.560346926086
0.10005002501250625,706.4941524097076,615.0953519713174,0.00046686647443668685,0.0,0.16105251917629126,0.2367554628991209,0.04773139899356075,1267.8990446955506,14451.55145639109
0.11005502751375687,712.3676029550957,624.0062906012704,0.0005395214859342415,0.0,0.1610750590482936,0.23673292296047013,0.04773139888816707,1267.8833337180065,14464.703876235719
0.12006003001500751,718.0381138495225,632.6009588720958,0.0006170489173962003,0.0,0.16109911046034217,0.23670887145000194,0.047731398732532515,1267.8665691007882,14478.011563838214
0.13006503251625812,723.5139243127488,640.89274203048,0.0006994387761768791,0.0,0.16112467029605826,0.23668331147236737,0.04773139850811155,1267.8487529945246,14491.468670649812
0.14007003501750875,728.8028549463687,648.8943040339888,0.0007866706721718727,0.0,0.16115173220913906,0.23665624935905863,0.047731398191483664,1267.8298897955149,14505.06953643501
0.15007503751875936,733.9123350843254,656.6176380338858,0.0008787150901993223,0.0,0.1611802870174534,0.23662769427385422,0.047731397753627135,1267.8099858701894,14518.808683608258
0.16008004002001,738.8494279089402,664.0741124172076,0.0009755345528666969,0.0,0.1612103230631684,0.23659765785223735,0.04773139715919956,1267.7890493032583,14532.680811678878
0.17008504252126064,743.6208535504908,671.2745128774675,0.0010770846780655018,0.0,0.16124182654021071,0.23656615387349667,0.047731396365845294,1267.7670896686561,14546.680791813178
0.18009004502251125,748.2330103639039,678.2290809257777,0.0011833151365457748,0.0,0.16127478179076973,0.23653319796381428,0.04773139532354903,1267.7441178221225,14560.803661520333
0.19009504752376188,752.6919945547271,684.947549204616,0.0012941705157984219,0.0,0.1613091715727917,0.23649880732840356,0.04773139397405389,1267.7201457140782,14575.044619466802
0.2001000500250125,757.0036183077999,691.4391739236448,0.0014095910968592031,0.0,0.16134497730053085,0.23646300051064165,0.04773139225036038,1267.69518622137,14589.399020422408
0.21010505252626313,761.1734265555805,697.712764699926,0.0015295135507532118,0.0,0.1613821792602542,0.2364257971761072,0.04773139007632067,1267.6692529964532,14603.862370339973
0.22011005502751374,765.2067125086138,703.7767120526778,0.0016538715612064252,0.0,0.1614207568031667,0.23638721791946685,0.04773138736633932,1267.6423603325688,14618.430321569314
0.23011505752876438,769.10853205787,709.63901277469,0.0017825963800243711,0.0,0.16146068851754866,0.23634728409222103,0.04773138402518958,1267.6145230435502,14633.098668205608
0.24012006003001501,772.8837171474212,715.3072933780338,0.0019156173212241032,0.0,0.16150195238199985,0.23630601764942044,0.04773137994795039,1267.5857563569348,14647.863341571361
0.25012506253126565,776.5368882059673,720.7888317903079,0.0020528621996393414,0.0,0.16154452590156557,0.2362634410135781,0.04773137502006714,1267.5560758191561,14662.720405830709
0.26013006503251623,780.0724657168994,726.0905774588603,0.0021942577193250806,0.0,0.16158838622839808,0.2362195769541243,0.0477313691175355,1267.5254972116545,14677.666053734341
0.27013506753376687,783.4946809987574,731.219170003931,0.0023397298166854155,0.0,0.1616335102684773,0.2361744484808782,0.04773136210720561,1267.494036476846,14692.696602492922
0.2801400700350175,786.8075862609813,736.1809565471108,0.0024892039628495273,0.0,0.1616798747757903,0.2361280787501333,0.047731353847200925,1267.4617096529678,14707.808489776613
0.29014507253626814,790.015063993653,740.9820078286684,0.0026426054294344577,0.0,0.16172745643524586,0.23608049098207526,0.04773134418744412,1267.4285328168967,14722.998269838174
0.3001500750375187,793.1208357444034,745.6281332159465,0.0027998595214650994,0.0,0.16177623193548674,0.23603170838836415,0.04773133297028059,1267.3945220341257,14738.262609756799
0.31015507753876936,796.1284703307143,750.1248946949574,0.0029608917808752813,0.0,0.1618261780326503,0.23598175410882252,0.047731320031188344,1267.3596933151496,14753.598285799875
0.32016008004002,799.0413915314336,754.4776199283694,0.003125628163690721,0.0,0.1618772716060304,0.23593065115626966,0.04773130519956232,1267.3240625775795,14769.002179899653
0.33016508254127064,801.8628852973563,758.6914144551281,0.0032939951936956776,0.0,0.16192948970649731,0.2358784223686362,0.04773128829956011,1267.2876456133797,14784.47127624183
0.3401700850425213,804.5961065171734,762.771173099866,0.0034659200951101927,0.0,0.1619828095984478,0.23582509036757957,0.04773126915099561,1267.2504580606671,14800.002657962988
0.35017508754377186,807.2440853719025,766.7215906539334,0.0036413309065532052,0.0,0.1620372087959802,0.2357706775228956,0.047731247570267255,1267.2125153795787,14815.59350395387
0.3601800900450225,809.8097333080267,770.5471718842215,0.0038201565783374646,0.0,0.16209266509391584,0.23571520592209727,0.04773122337130737,1267.1738328317522,14831.241085765389
0.37018509254627313,812.2958486569929,774.25224092089,0.004002327054933831,0.0,0.1621491565942273,0.23565869734459255,0.04773119636653974,1267.1344254630203,14846.942764614374
0.38019009504752377,814.7051219263715,777.840950070562,0.004187773344253765,0.0,0.1622066617283727,0.23560117323995255,0.0477311663678332,1267.0943080889535,14862.695988486112
0.39019509754877435,817.0401407858707,781.3172880974682,0.0043764275752281616,0.0,0.16226515927598556,0.23554265470981528,0.04773113318743983,1267.053495282923,14878.498289330648
0.400200100050025,819.3033947694872,784.6850880113489,0.004568223045006726,0.0,0.1623246283803213,0.23548316249301587,0.047731096638907344,1267.0120013663945,14894.347280350046
0.4102051025512756,821.4972797133361,787.9480343976103,0.004763094256963376,0.0,0.1623850485608203,0.23542271695357853,0.0477310565379563,1266.9698404011938,14910.24065337371
0.42021010505252626,823.6241019471385,791.1096703222485,0.004960976950568367,0.0,0.16244639972310926,0.2353613380712423,0.04773101270331426,1266.9270261835034,14926.176176319013
0.4302151075537769,825.6860822559114,794.1734038413451,0.005161808124075752,0.0,0.16250866216672924,0.23529904543422903,0.04773096495749974,1266.8835722393874,14942.151690734541
0.4402201100550275,827.6853596271059,797.1425141425055,0.005365526050874008,0.0,0.16257181659084852,0.2352358582339911,0.047730913127550595,1266.839491821655,14958.165109423286
0.4502251125562781,829.6239947972552,800.0201573433873,0.005572070290257443,0.0,0.1626358440981912,0.2351717952617052,0.04773085704569233,1266.7947979079004,14974.214414143224
0.46023011505752875,831.5039736111219,802.8093719704622,0.005781381693294899,0.0,0.1627007261973891,0.23510687490630333,0.04773079654994304,1266.749503199563,14990.297653382773
0.4702351175587794,833.3272102053385,805.5130841393246,0.005993402404399788,0.0,0.1627664448039418,0.23504111515385367,0.047730731484653136,1266.7036201218864,15006.412940208713
0.48024012006003003,835.0955500276463,808.1341124562013,0.006208075859140423,0.0,0.16283298223995238,0.23497453358812456,0.04773066170097863,1266.6571608246502,15022.558450184164
0.4902451225612806,836.8107727020057,810.6751726588006,0.006425346778771412,0.0,0.16290032123278633,0.2349071473921824,0.04773058705728793,1266.6101371835764,15038.732419354385
0.5002501250625313,838.4745947491051,813.13888201326,0.006645161161914799,0.0,0.16296844491278875,0.23483897335089057,0.04773050741950312,1266.5625608023163,15054.933142298129
0.5102551275637819,840.0886721710993,815.5277634826886,0.006867466273772943,0.0,0.16303733681017918,0.23477002785418966,0.047730422661376934,1266.5144430149344,15071.158970242415
0.5202601300650325,841.6546029087759,817.8442496816532,0.007092210633213485,0.0,0.1631069808512315,0.23470032690105355,0.04773033266470793,1266.4657948888191,15087.408309238624
0.5302651325662832,843.173929178771,820.0906866298927,0.007319343998029328,0.0,0.16317736135383537,0.23462988610402682,0.04773023731949639,1266.4166272279563,15103.679618397906
0.5402701350675337,844.6481396979109,822.2693373175881,0.007548817348643227,0.0,0.16324846302252577,0.2345587206942579,0.04773013652404421,1266.3669505765076,15119.971408183932
0.5502751375687843,846.0786718012764,824.3823850936237,0.007780582870496704,0.0,0.16332027094305857,0.23448684552695423,0.04773003018500224,1266.3167752226448,15136.282238761092
0.560280140070035,847.4669134601211,826.4319368874618,0.008014593935336262,0.0,0.16339277057659995,0.23441427508719112,0.04772991821736891,1266.2661112025953,15152.610718396345
0.5702851425712856,848.814205205366,828.4200262745056,0.008250805081586026,0.0,0.16346594775359405,0.23434102349601535,0.047729800544443875,1266.2149683048613,15168.955501912873
0.5802901450725363,850.1218419620056,830.348616394138,0.00848917199397456,0.0,0.1635397886673627,0.23426710451679036,0.04772967709774102,1266.1633560745775,15185.315289193915
0.5902951475737869,851.3910747994007,832.2196027289872,0.008729651482564469,0.0,0.16361427986748756,0.23419253156173547,0.04772954781686448,1266.1112838179774,15201.68882373507
0.6003001500750375,852.6231126021069,834.0348157533826,0.008972201461316552,0.0,0.16368940825301928,0.2341173176986181,0.04772941264935205,1266.0587606069444,15218.074891243465
0.6103051525762881,853.8191236655875,835.796023458443,0.009216780926304563,0.0,0.16376516106555278,0.23404147565756075,0.04772927155048952,1266.0057952836169,15234.472318282267
0.6203101550775387,854.9802372208889,837.5049337607355,0.009463349933683113,0.0,0.1638415258822038,0.2339650178379315,0.04772912448310016,1265.9523964650405,15250.879970959033
0.6303151575787894,856.1075448920575,839.1631968009629,0.009711869577499569,0.0,0.16391849060851862,0.23388795631528764,0.04772897141731263,1265.898572547838,15267.296753656428
0.64032016008004,857.2021020898803,840.77240713873,0.009962301967429338,0.0,0.16399604347134403,0.2338103028483474,0.047728812330310864,1265.8443317128847,15283.721607803955
0.6503251625812906,858.2649293452768,842.334105849053,0.01021461020650446,0.0,0.1640741730116824,0.2337320688859675,0.04772864720606933,1265.7896819299808,15300.153510689312
0.6603301650825413,859.2970135854837,843.8497825259004,0.010468758368898014,0.0,0.16415286807755372,0.23365326557410632,0.04772847603507656,1265.734630962504,15316.591474308103
0.6703351675837919,860.2993093562737,845.3208771981583,0.010724711480289894,0.0,0.16423211781765126,0.23357390376198783,0.047728298814049615,1265.679186371496,15333.034544250602
0.6803401700850426,861.2727404368146,846.748782793392,0.010982439086982576,0.0,0.16431191278834248,0.23349399289491587,0.047728115545642213,1265.623354743719,15349.481798625702
0.6903451725862931,862.2183691263167,848.1350857598404,0.011243277564753254,0.0,0.1643926675875712,0.23341311838002982,0.04772792623790323,1265.5668471056915,15365.932348285945
0.7003501750875437,863.1372632533629,849.4813760864904,0.011508903811901358,0.0,0.16447490245829707,0.23333075998162178,0.04772773090231088,1265.5093008512247,15382.385344151455
0.7103551775887944,864.0298946498058,850.7883945236915,0.011776382796647033,0.0,0.1645577068717242,0.23324782823962356,0.04772752955648553,1265.4513506612623,15398.83996045407
0.720360180090045,864.897062067347,852.0573443702079,0.012045598292233903,0.0,0.16464104479269323,0.23316435920391304,0.04772732222371238,1265.3930216814585,15415.295395205248
0.7303651825912957,865.7395489140971,853.2894044616739,0.012316520803220501,0.0,0.16472490709696275,0.2330803620162761,0.047727108931745546,1265.334320305143,15431.750874007546
0.7403701850925463,866.5581134664986,854.4857153718626,0.01258912174816728,0.0,0.16480928494750777,0.23299584553392086,0.04772688971251135,1265.2752527302907,15448.205649212503
0.7503751875937968,867.3534897298699,855.6473807496275,0.012863373324220743,0.0,0.16489416975225876,0.23291081837155964,0.0477266646018257,1265.215824988653,15464.658999063213
0.7603801900950475,868.1263882787814,856.775468621191,0.013139248487542889,0.0,0.16497955315778634,0.2328252889075501,0.04772643363911814,1265.1560429498327,15481.11022686427
0.7703851925962981,868.8774970644834,857.8710126399686,0.01341672093426279,0.0,0.16506542704315405,0.2327392652898723,0.04772619686716318,1265.095912325261,15497.558660178374
0.7803901950975487,869.6074821908869,858.9350132864081,0.013695765081784652,0.0,0.16515178351388918,0.23265275544199332,0.04772595433181968,1265.0354386720928,15514.003650048622
0.7903951975987994,870.3169886605357,859.9684390202098,0.013976356050458313,0.0,0.1652386148960734,0.23256576706861695,0.04772570608177885,1264.9746273970334,15530.4445702457
0.80040020010005,871.0066410919333,860.972227387156,0.014258469645616677,0.0,0.16532591373055566,0.23247830766131738,0.04772545216832114,1264.913483760089,15546.880816539155
0.8104052026013007,871.6770444095113,861.9472860826635,0.014542082339983102,0.0,0.16541367276728783,0.23239038450405575,0.04772519264508244,1264.8520128782427,15563.311805991976
0.8204102051025512,872.328784507458,862.894493974043,0.014827171256450323,0.0,0.16550188495978374,0.23230200467857887,0.047724927567829784,1264.7902197290553,15579.7369762777
0.8304152076038018,872.9624288885647,863.8147020833559,0.015113714151231417,0.0,0.16559054345970317,0.23221317506970007,0.0477246569942467,1264.72810915419,15596.155785019342
0.8404202101050525,873.5785272791823,864.7087345326439,0.015401689397382168,0.0,0.16567964161155838,0.2321239023704625,0.04772438098372832,1264.6656858628644,15612.567709149433
0.8504252126063031,874.1776122213267,865.5773894532188,0.015691075968693274,0.0,0.16576917294754528,0.23203419308718495,0.047724099597185946,1264.6029544352255,15628.972244290475
0.8604302151075538,874.7601996429182,866.4214398606092,0.015981853423950212,0.0,0.16585913118249607,0.23194405354439143,0.04772381289686158,1264.5399193256517,15645.368904155148
0.8704352176088044,875.3267894070871,867.2416344966739,0.016274001891557574,0.0,0.16594951020895438,0.231853489889625,0.04772352094615173,1264.4765848659815,15661.75721996567
0.880440220110055,875.8778658414362,868.0386986403157,0.016567502054524424,0.0,0.16604030409237,0.2317625080981474,0.04772322380944066,1264.4129552686672,15678.136739891625
0.8904452226113057,876.4138982481,868.8133348881562,0.016862335135806445,0.0,0.1661315070664127,0.2316711139775257,0.04772292155194286,1264.3490346298604,15694.507028505735
0.9004502251125562,876.9353413954036,869.5662239064578,0.017158482884000334,0.0,0.16622311352840333,0.23157931317210687,0.04772261423955443,1264.2848269324209,15710.867666256945
0.9104552276138069,877.4426359918812,870.2980251555198,0.0174559275593855,0.0,0.16631511803486054,0.23148711116738338,0.047722301938713206,1264.2203360488613,15727.218248960287
0.9204602301150575,877.9362091433815,871.0093775877091,0.017754651920307757,0.0,0.16640751529716052,0.23139451329424948,0.04772198471626742,1264.1555657442161,15743.558387302972
0.9304652326163081,878.4164747939469,871.7009003202306,0.018054639209899578,0.0,0.1665003001773093,0.23130152473315183,0.047721662639352506,1264.0905196788497,15759.887706366211
0.9404702351175588,878.8838341511251,872.373193283687,0.01835587314313099,0.0,0.1665934676838237,0.23120815051813493,0.04772133577527574,1264.0252014111886,15776.205845162223
0.9504752376188094,879.3386760963369,873.026837847427,0.018658337894185344,0.0,0.16668701296772037,0.23111439554078433,0.04772100419140872,1263.959614400396,15792.512456185976
0.9604802401200601,879.7813775808979,873.6623974226313,0.018962018084153796,0.0,0.16678093131861033,0.2310202645540688,0.0477206679550869,1263.893762008975,15808.807204981174
0.9704852426213106,880.2123040082611,874.28041804404,0.019266898769042314,0.0,0.1668752181608961,0.2309257621760838,0.04772032713351636,1263.827647505313,15825.089769720023
0.9804902451225612,880.6318096030232,874.8814289311852,0.019572965428085055,0.0,0.1669698690500703,0.23083089289369854,0.0477199817936872,1263.7612740661593,15841.35984079635
0.9904952476238119,881.0402377672102,875.4659430299463,0.019880203952357702,0.0,0.16706487966911268,0.23073566106610782,0.04771963200229336,1263.6946447790444,15857.617120431658
1.0005002501250626,881.4379214243379,876.0344575352116,0.02018860063368444,0.0,0.16716024582498396,0.23064007092829172,0.04771927782565855,1263.6277626446379,15873.86132229366
1.0105052526263132,881.8251833517159,876.5874543953917,0.020498142153832315,0.0,0.16725596344521362,0.23054412659438436,0.04771891932966807,1263.5606305790475,15890.092171126953
1.0205102551275638,882.2023365014486,877.1254007994947,0.020808815573986575,0.0,0.16735202857458018,0.23044783206095423,0.0477185565797061,1263.4932514160605,15906.30940239537
1.0305152576288144,882.5696843105601,877.6487496474454,0.02112060832450066,0.0,0.16744843737188086,0.23035119121019804,0.04771818964059825,1263.4256279093293,15922.512761935726
1.040520260130065,882.9275210006547,878.1579400042905,0.021433508194914658,0.0,0.1675451861067893,0.23025420781304998,0.047717818576559184,1263.3577627344996,15938.702005622506
1.0505252626313157,883.2761318675091,878.6533975389157,0.02174750332423595,0.0,0.16764227115679864,0.23015688553220817,0.047717443451144856,1263.2896584912874,15954.876899043225
1.0605302651325663,883.615793560968,879.1355349478602,0.022062582191475916,0.0,0.16773968900424788,0.23005922792508138,0.0477170643272093,1263.2213177055007,15971.037217184035
1.070535267633817,883.946774355507,879.6047523647964,0.022378733606436593,0.0,0.16783743623342978,0.22996123844665597,0.04771668126686548,1263.1527428310112,15987.18274412534
1.0805402701350675,884.2693344118038,880.0614377562141,0.022695946700741338,0.0,0.16793550952777764,0.2298629204522873,0.04771629433145035,1263.083936251673,16003.313272747047
1.090545272636318,884.5837260296503,880.5059673038277,0.02301421091910345,0.0,0.16803390566712942,0.22976427720041553,0.047715903581493455,1263.0149002831954,16019.428604443137
1.1005502751375686,884.8901938925206,880.9387057741972,0.023333516010827064,0.0,0.16813262152506694,0.22966531185520905,0.047715509076689026,1262.9456371749645,16035.528548845326
1.1105552776388194,885.1889753040978,881.36000687604,0.023653852021534517,0.0,0.16823165406632812,0.22956602748913635,0.047715110875871616,1262.8761491118173,16051.612923555424
1.12056028014007,885.4803004170483,881.7702136056838,0.023975209285114426,0.0,0.16833100034429077,0.22946642708546902,0.047714709036994554,1262.8064382157745,16067.68155388622
1.1305652826413206,885.7643924543261,882.1696585810956,0.024297578415885215,0.0,0.1684306574985255,0.2293665135407171,0.04771430361711149,1262.7365065477209,16083.734272610563
1.1405702851425712,886.0414679232679,882.5586643649035,0.02462095030096837,0.0,0.16853062275241593,0.2292662896669987,0.047713894672360556,1262.6663561090493,16099.770919718372
1.1505752876438218,886.3117368227412,882.9375437768052,0.024945316092866224,0.0,0.16863089341084517,0.2291657581943453,0.04771348225795111,1262.5959888432556,16115.791342181363
1.1605802901450726,886.5754028435861,883.3066001957535,0.02527066720223907,0.0,0.1687314668579455,0.22906492177294488,0.04771306642815286,1262.5254066374962,16131.795393725226
1.1705852926463232,886.8326635625903,883.6661278522747,0.025596995290876386,0.0,0.16883234055491084,0.22896378297532435,0.04771264723628712,1262.4546113241036,16147.782934608993
1.1805902951475737,887.0837106302214,884.0164121112795,0.025924292264857294,0.0,0.16893351203786924,0.22886234429847255,0.04771222473472026,1262.383604682059,16163.753831411435
1.1905952976488243,887.3287299523346,884.3577297456987,0.026252550267895247,0.0,0.16903497891581462,0.22876060816590568,0.04771179897485889,1262.3123884384327,16179.70795682418
1.200600300150075,887.5679018660657,884.6903492012698,0.026581761674862165,0.0,0.1691367388685953,0.22865857692967678,0.04771137000714694,1262.2409642697796,16195.64518945142
1.2106053026513257,887.8014013101106,885.0145308527846,0.026911919085487315,0.0,0.16923878964495867,0.22855625287233028,0.04771093788106436,1262.1693338035025,16211.565413615916
1.2206103051525763,888.0293979895823,885.3305272520968,0.02724301531822644,0.0,0.1693411290606496,0.22845363820880374,0.04771050264512733,1262.097498619178,16227.468519171196
1.2306153076538269,888.2520565356319,885.6385833681719,0.02757504340429659,0.0,0.16944375499656172,0.22835073508827758,0.04771006434688982,1262.0254602498462,16243.354401319666
1.2406203101550775,888.4695366600138,885.938936819461,0.02790799658187234,0.0,0.1695466653969397,0.22824754559597454,0.04770962303294655,1261.9532201832697,16259.222960436486
1.250625312656328,888.6819933047616,886.2318180988577,0.02824186829043905,0.0,0.16964985826763157,0.22814407175490997,0.04770917874893702,1261.8807798631535,16275.074101899034
1.2606303151575788,888.8895767871484,886.5174507914963,0.028576652165299147,0.0,0.16975333167438925,0.2280403155275948,0.04770873153955075,1261.8081406903382,16290.907735921764
1.2706353176588294,889.0924329400812,886.7960517856337,0.02891234203222713,0.0,0.169857083741216,0.22793627881769143,0.04770828144853338,1261.7353040239595,16306.723777396302
1.28064032016008,889.2907032480902,887.0678314768518,0.02924893190226968,0.0,0.16996111264876024,0.22783196347162518,0.04770782851869381,1261.6622711825742,16322.522145736588
1.2906453226613306,889.4845249790549,887.3329939658049,0.02958641596668663,0.0,0.17006541663275285,0.22772737128015122,0.04770737279191213,1261.58904344526,16338.302764728945
1.3006503251625812,889.6740313118123,887.5917372497332,0.02992478859202935,0.0,0.17016999398248872,0.22762250397987896,0.04770691430914823,1261.5156220526858,16354.065562386895
1.310655327663832,889.8593514597814,887.8442534079476,0.030264044315352658,0.0,0.17027484303934964,0.22751736325475497,0.04770645311045119,1261.4420082081492,16369.810470810551
1.3206603301650826,890.040610790739,888.0907287814917,0.030604177839556775,0.0,0.17037996219536855,0.22741195073750503,0.04770598923496928,1261.3682030785922,16385.537426050505
1.3306653326663331,890.2179309428691,888.3313441471737,0.03094518402885588,0.0,0.17048534989183303,0.22730626801103712,0.047705522720960375,1261.2942077955843,16401.24636797599
1.3406703351675837,890.3914299372125,888.5662748861545,0.03128705790436973,0.0,0.17059100461792792,0.2272003166098061,0.047705053605803086,1261.2200234562831,16416.937240147246
1.3506753376688343,890.5612222866322,888.7956911472745,0.03162979463983515,0.0,0.1706969249094151,0.2270940980211408,0.04770458192600813,1261.145651124369,16432.609989691926
1.360680340170085,890.7274191014089,889.0197580052909,0.031973389557434104,0.0,0.17080310934735013,0.22698761368653517,0.047704107717230174,1261.0710918309508,16448.26456718543
1.3706853426713357,890.8901281915762,889.2386356141944,0.032317838123735246,0.0,0.17090955655683396,0.22688086500290405,0.04770363101428004,1260.9963465754538,16463.90092653499
1.3806903451725863,891.0494541661013,889.4524793557664,0.03266313594574588,0.0,0.1710162652057995,0.22677385332380443,0.047703151851137104,1260.9214163264771,16479.519024867506
1.3906953476738368,891.2054985290123,889.6614399835305,0.03300927876707134,0.0,0.17112323400383161,0.22666657996062392,0.04770267026096207,1260.8463020226327,16495.118822420885
1.4007003501750874,891.3583597725735,889.8656637622526,0.0333562624641788,0.0,0.1712304617010196,0.22655904618373585,0.047702186276109865,1260.77100457336,16510.700282438826
1.4107053526763382,891.508133467599,890.0652926031296,0.03370408304276297,0.0,0.17133794708684158,0.22645125322362353,0.047701699928142716,1260.6955248597196,16526.263371068995
1.4207103551775888,891.654912351001,890.2604641948101,0.03405273663421048,0.0,0.17144568898907947,0.22634320227197358,0.04770121124784343,1260.6198637351638,16541.808057264374
1.4307153576788394,891.798786410658,890.4513121303794,0.0344022194921608,0.0,0.17155368627276418,0.22623489448273917,0.0477007202652287,1260.5440220262888,16557.33431268778
1.44072036018009,891.9398429676892,890.6379660304389,0.034752527989160543,0.0,0.17166193783914954,0.22612633097317447,0.047700227009562585,1260.4680005335654,16572.842111619422
1.4507253626813406,892.0781667562203,890.8205516624091,0.03510365861340907,0.0,0.17177044262471503,0.22601751282484062,0.04769973150936994,1260.3918000320489,16588.331430867336
1.4607303651825914,892.2138400007154,890.9991910561711,0.03545560796559273,0.0,0.1718791996001956,0.22590844108458444,0.04769923379244997,1260.3154212720729,16603.802249680757
1.470735367683842,892.3469424909557,891.1740026161684,0.03580837275580517,0.0,0.17198820776963844,0.22579911676548994,0.047698733885889716,1260.2388649799213,16619.254549666173
1.4807403701850925,892.4775516547392,891.3451012300806,0.03616194980055179,0.0,0.17209746616948574,0.2256895408478045,0.047698231816077595,1260.1621318584841,16634.688314706094
1.490745372686343,892.6057426283708,891.512598374177,0.03651633601983563,0.0,0.17220697386768288,0.22557971427983892,0.047697727608716864,1260.0852225878946,16650.103530880362
1.5007503751875937,892.7315883250158,891.6766022154567,0.03687152843432272,0.0,0.1723167299628106,0.22546963797884378,0.04769722128883902,1260.00813782615,16665.500186390007
1.5107553776888443,892.8551595009802,891.8372177106764,0.037227524162584694,0.0,0.1724267335832422,0.22535931283186084,0.04769671288081716,1259.9308782097157,16680.87827148352
1.520760380190095,892.976524819986,891.9945467023649,0.037584320418416556,0.0,0.1725369838863226,0.22524873969655207,0.04769620240837926,1259.85344435411,16696.237778385443
1.5307653826913457,893.0957509155015,892.1486880119165,0.03794191450822747,0.0,0.17264748005757116,0.2251379194020055,0.04769568989462136,1259.7758368544792,16711.57870122727
1.5407703851925962,893.2129024511894,892.2997375298601,0.038300303828502774,0.0,0.17275822130990576,0.22502685274951917,0.0476951753620206,1259.6980562861506,16726.90103598054
1.5507753876938468,893.3280421795297,892.4477883033884,0.03865948586333512,0.0,0.17286920688288854,0.22491554051336363,0.04769465883244818,1259.6201032051754,16742.20478039205
1.5607803901950974,893.441230998675,892.5929306212334,0.03901945818202287,0.0,0.17298043604199226,0.22480398344152375,0.04769414032718219,1259.5419781488536,16757.489933921177
1.5707853926963482,893.5525280075937,892.7352520959752,0.039380218436734074,0.0,0.17309190807788696,0.22469218225642004,0.04769361986692024,1259.4636816362472,16772.756497679125
1.5807903951975988,893.6619905595509,892.8748377438578,0.03974176436023397,0.0,0.17320362230574599,0.22458013765561044,0.04769309747179208,1259.3852141686775,16788.004474370195
1.5907953976988494,893.7696743139846,893.0117700621953,0.040104093763674596,0.0,0.17331557806457162,0.2244678503124727,0.04769257316137187,1259.3065762302108,16803.233868234896
1.6008004002001,893.8756332868181,893.1461291044398,0.04046720453444457,0.0,0.1734277747165386,0.2243553208768685,0.04769204695469049,1259.2277682881306,16818.444684994847
1.6108054027013505,893.9799198992665,893.2779925529848,0.04083109463407748,0.0,0.1735402116463562,0.224242549975789,0.04769151887024749,1259.1487907933933,16833.636931799494
1.6208104052026013,894.0825850251744,893.4074357897753,0.041195762096217385,0.0,0.17365288826064743,0.22412953821398293,0.047690988926023074,1259.0696441810796,16848.810617174495
1.630815407703852,894.1836780369371,893.5345319647893,0.04156120502463965,0.0,0.1737658039873458,0.2240162861745677,0.04769045713948971,1258.9903288708244,16863.965750971787
1.6408204102051025,894.2832468500445,893.6593520624605,0.04192742159132593,0.0,0.17387895827510813,0.22390279441962357,0.04768992352762375,1258.9108452672424,16879.102344321218
1.650825412706353,894.3813379662926,893.7819649661025,0.04229441003459142,0.0,0.17399235059274373,0.22378906349077157,0.04768938810691664,1258.8311937603364,16894.22040958376
1.6608304152076037,894.477996515699,893.9024375203965,0.04266216865726334,0.0,0.17410598042865927,0.22367509390973575,0.04768885089338621,1258.7513747259018,16909.319960306206
1.6708354177088545,894.5732662971703,894.0208345920048,0.043030695824909,0.0,0.1742198472903189,0.2235608861788902,0.047688311902587543,1258.67138852591,16924.401011177346
1.680840420210105,894.6671898179476,894.1372191283622,0.043399989964112144,0.0,0.17433395070371907,0.2234464407817908,0.0476877711496238,1258.5912355088929,16939.463577985494
1.6908454227113556,894.7598083318798,894.2516522147075,0.043770049560796415,0.0,0.17444829021287778,0.22333175818369277,0.04768722864915683,1258.5109160103063,16954.50767757747
1.7008504252126062,894.851161876551,894.3641931294038,0.04414087315859438,0.0,0.17456286537933802,0.22321683883205387,0.047686684415417485,1258.4304303528918,16969.533327818826
1.7108554277138568,894.941289309302,894.4748993976028,0.044512459357261086,0.0,0.17467767578168447,0.2231016831570239,0.04768613846221593,1258.349778847023,16984.54054755536
1.7208604302151076,895.0302283421764,894.5838268433025,0.044884806811130946,0.0,0.17479272101507395,0.2229862915719208,0.047685590802951566,1258.268961791046,16999.52935657594
1.7308654327163582,895.1180155758275,894.6910296398468,0.045257914227616484,0.0,0.1749080006907782,0.22287066447369416,0.04768504145062295,1258.1879794716097,17014.49977557641
1.7408704352176088,895.2046865324123,894.7965603589168,0.045631780365748234,0.0,0.1750235144357397,0.22275480224337538,0.04768449041783732,1258.1068321639866,17029.451826124783
1.7508754377188593,895.2902756875098,894.9004700180571,0.04600640403475428,0.0,0.17513926189213916,0.2226387052465159,0.04768393771682011,1258.0255201323832,17044.385530627485
1.76088044022011,895.3748165010867,895.0028081267823,0.0463817840926786,0.0,0.17525524271697535,0.2225223738336138,0.04768338335942423,1257.9440436302473,17059.300912296698
1.7708854427213607,895.4583414475434,895.1036227313067,0.04675791944503706,0.0,0.175371456581656,0.222405808340528,0.047682827357139024,1257.8624029005607,17074.197995118786
1.7808904452226113,895.5408820448677,895.2029604579413,0.047134809043509945,0.0,0.17548790317160026,0.22228900908888197,0.04768226972109925,1257.7805981761285,17089.076803823697
1.7908954477238619,895.62246888292,895.3008665551932,0.04751245188467031,0.0,0.17560458218585182,0.22217197638645556,0.04768171046209372,1257.698629679858,17103.937363855428
1.8009004502251125,895.7031316508806,895.3973849346139,0.04789084700874679,0.0,0.17572149333670267,0.2220547105275672,0.04768114959057384,1257.6164976250304,17118.779701343392
1.810905452726363,895.7828991638819,895.4925582104262,0.04826999349842022,0.0,0.17583863634932725,0.2219372117934446,0.04768058711666192,1257.534202215568,17133.603843074714
1.8209104552276139,895.8617993888482,895.5864277379735,0.048649890477653064,0.0,0.1759560109614265,0.221819480452586,0.04768002305015932,1257.4517436462893,17148.409816467483
1.8309154577288644,895.9398594695732,895.6790336510235,0.049030537110550665,0.0,0.1760736169228815,0.22170151676111147,0.04767945740055444,1257.3691221031597,17163.197649544803
1.840920460230115,896.0171057510479,895.7704148979606,0.04941193260025356,0.0,0.1761914539954171,0.22158332096310443,0.047678890177030496,1257.2863377635374,17177.967370909737
1.8509254627313656,896.0935638030743,895.8606092769021,0.04979407618786001,0.0,0.17630952195227428,0.22146489329094401,0.04767832138847316,1257.2033907964083,17192.719009721062
1.8609304652326162,896.169258443174,895.9496534697703,0.05017696715137777,0.0,0.17642782057789133,0.22134623396562836,0.04767775104347799,1257.1202813626185,17207.452595669816
1.870935467733867,896.2442137588214,896.0375830753504,0.05056060480470451,0.0,0.17654634966759442,0.221227343197089,0.047677179150357726,1257.0370096150968,17222.16815895658
1.8809404702351176,896.3184531290174,896.1244326413661,0.050944988496635944,0.0,0.17666510902729582,0.22110822118449694,0.04767660571714942,1256.953575699076,17236.865730269565
1.8909454727363681,896.3919992452253,896.2102356956021,0.05133011760990096,0.0,0.1767840984732012,0.22098886811655985,0.04767603075162132,1256.8699797523018,17251.545340763343
1.9009504752376187,896.4648741316869,896.2950247761024,0.05171599156022305,0.0,0.17690331783152405,0.22086928417181184,0.047675454261279816,1256.7862219052427,17266.207022038365
1.9109554777388693,896.5370991651388,896.3788314604703,0.052102609795407324,0.0,0.1770227669382085,0.220749469518895,0.047674876253375874,1256.7023022812887,17280.850806121063
1.9209604802401201,896.608695093945,896.4616863942997,0.052489971794452195,0.0,0.17714244563865958,0.22062942431683294,0.04767429673491169,1256.6182209969493,17295.476725444674
1.9309654827413707,896.6796820566642,896.5436193187617,0.05287807706668544,0.0,0.17726235378748073,0.22050914871529773,0.04767371571264689,1256.5339781620407,17310.084812830653
1.9409704852426213,896.7500796000697,896.624659097372,0.05326692515092369,0.0,0.17738249124821845,0.22038864285486862,0.047673133193104796,1256.4495738798735,17324.675101470733
1.9509754877438719,896.8199066966366,896.7048337419654,0.05365651561465474,0.0,0.17750285789311412,0.22026790686728448,0.04767254918257839,1256.3650082474323,17339.247624909553
1.9609804902451224,896.889181761513,896.7841704378975,0.05404684805324212,0.0,0.17762345360286247,0.22014694087568898,0.04767196368713624,1256.2802813555504,17353.802417027888
1.970985492746373,896.9579226689917,896.8626955685004,0.054437922089151325,0.0,0.17774427826637645,0.22002574499486907,0.04767137671262823,1256.1953932890804,17368.339512026374
1.9809904952476238,897.0261467684942,896.9404347388129,0.05482973737119705,0.0,0.17786533178055877,0.21990431933148719,0.04767078826469115,1256.1103441270598,17382.858944409894
1.9909954977488744,897.0938709000868,897.0174127986053,0.05522229357381081,0.0,0.17798661405007957,0.21978266398430707,0.04767019834875416,1256.025133942874,17397.360748972344
2.001000500250125,897.1611114095373,897.0936538647242,0.05561559039632866,0.0,0.17810812498716014,0.21966077904441333,0.047669606970044145,1255.9397628044096,17411.84496078199
2.0110055027513756,897.2278841629293,897.1691813427719,0.05600962756229797,0.0,0.17822986451136252,0.2195386645954253,0.047669014133590905,1255.8542307742127,17426.311615167328
2.0210105052526264,897.2942045608482,897.2440179481448,0.05640440481880334,0.0,0.17835183254938486,0.21941632071370457,0.04766841984423221,1255.7685379096317,17440.760747703334
2.0310155077538767,897.3600875521481,897.3181857264477,0.056799921935810495,0.0,0.17847402903486212,0.21929374746855765,0.047667824106618774,1255.6826842629655,17455.192394198282
2.0410205102551275,897.4255476473159,897.3917060733019,0.05719617870552827,0.0,0.17859645390817264,0.2191709449224325,0.04766722692521905,1255.596669881603,17469.60659068091
2.0510255127563783,897.4905989314426,897.4645997535677,0.057593174941787666,0.0,0.17871910711624958,0.21904791313110994,0.04766662830432395,1255.5104948081605,17484.00337338808
2.0610305152576287,897.5552550768159,897.5368869199951,0.057990910479437836,0.0,0.17884198861239756,0.21892465214388984,0.04766602824805144,1255.4241590806132,17498.382778752824
2.0710355177588795,897.6195293551415,897.6085871313238,0.05838938517375859,0.0,0.1789650983561143,0.21880116200377245,0.04766542676035098,1255.3376627324274,17512.744843392826
2.08104052026013,897.6834346494095,897.6797193698436,0.05878859889988848,0.0,0.17908843631291735,0.21867744274763434,0.04766482384500789,1255.2510057926831,17527.08960409925
2.0910455227613807,897.7469834654127,897.7503020584362,0.05918855155226869,0.0,0.17921200245417498,0.2185534944064004,0.0476642195056476,1255.1641882862007,17541.417097825983
2.1010505252626315,897.8101879429296,897.8203530771108,0.05958924304410178,0.0,0.17933579675694214,0.21842931700521012,0.0476636137457398,1255.0772102336564,17555.72736167924
2.111055527763882,897.8730598665809,897.8898897790489,0.059990673306825115,0.0,0.1794598192038005,0.21830491056358028,0.047663006568602416,1254.9900716517013,17570.02043290751
2.1210605302651326,897.9356106763726,897.9589290061726,0.06039284228959868,0.0,0.1795840697827034,0.21818027509556284,0.04766239797740563,1254.9027725530718,17584.29634889186
2.131065532766383,897.9978514779293,898.027487104252,0.060795749958806405,0.0,0.179708548486824,0.21805541060989847,0.04766178797517563,1254.8153129467014,17598.555147136576
2.141070535267634,898.059793052436,898.0955799375623,0.06119939629757133,0.0,0.1798332553144086,0.2179303171101662,0.047661176564798347,1254.7276928378276,17612.79686526009
2.151075537768884,898.1214458662886,898.1632229031063,0.06160378130528352,0.0,0.17995819026863338,0.21780499459492889,0.04766056374902313,1254.6399122280939,17627.021540986298
2.161080540270135,898.182820080469,898.230430944414,0.06200890499714096,0.0,0.18008335335746478,0.2176794430578747,0.047659949530466254,1254.551971115653,17641.229212136095
2.1710855427713858,898.2439255596508,898.2972185649307,0.06241476740370263,0.0,0.1802087445935242,0.21755366248795507,0.04765933391161437,1254.4638694952655,17655.41991661927
2.181090545272636,898.304771881043,898.3635998410084,0.06282136857045373,0.0,0.18033436399395605,0.21742765286951843,0.047658716894827854,1254.375607358394,17669.593692426613
2.191095547773887,898.365368342984,898.4295884345081,0.06322870855738255,0.0,0.18046021158029937,0.21730141418244092,0.0476580984823441,1254.2871846932983,17683.750577622413
2.2011005502751373,898.4257239732893,898.4951976050272,0.0636367874385687,0.0,0.1805862873783627,0.21717494640225324,0.04765747867628068,1254.1986014851248,17697.89061033708
2.211105552776388,898.4858475373663,898.5604402217623,0.06404560530178237,0.0,0.18071259141810286,0.2170482495002641,0.04765685747863847,1254.1098577159953,17712.013828760155
2.221110555277639,898.5457475460992,898.6253287750158,0.06445516224809435,0.0,0.18083912373350639,0.21692132344368065,0.047656234891304654,1254.0209533650932,17726.120271133477
2.2311155577788893,898.6054322635143,898.6898753873586,0.06486545839149647,0.0,0.18096588436247443,0.21679416819572508,0.04765561091605564,1253.9318884087472,17740.209975744656
2.24112056028014,898.6649097142354,898.7540918244596,0.06527649385853229,0.0,0.1810928733467109,0.21666678371574905,0.047654985554560006,1253.8426628205127,17754.282980920747
2.2511255627813904,898.7241876907309,898.817989505587,0.06568826878793735,0.0,0.18122009073161294,0.216539169959344,0.04765435880838119,1253.7532765712508,17768.339325022152
2.2611305652826412,898.783273760367,898.8815795137946,0.06610078333028942,0.0,0.18134753656616537,0.21641132687844938,0.04765373067898025,1253.6637296292054,17782.379046436796
2.271135567783892,898.84217527227,898.9448726058024,0.06651403764766765,0.0,0.18147521090283675,0.21628325442145763,0.047653101167718544,1253.5740219600787,17796.402183574406
2.2811405702851424,898.9008993640044,899.0078792215742,0.06692803191332099,0.0,0.18160311379747907,0.21615495253331615,0.04765247027586021,1253.4841535271048,17810.408774861142
2.291145572786393,898.9594529680801,899.0706094936074,0.06734276631134534,0.0,0.1817312453092299,0.21602642115562715,0.047651838004574794,1253.3941242911194,17824.398858734294
2.3011505752876436,899.0178428182868,899.133073255939,0.06775824103636918,0.0,0.18185960550041677,0.21589766022674445,0.04765120435493959,1253.3039342106306,17838.372473637293
2.3111555777888944,899.0760754558713,899.1952800528751,0.06817445629324755,0.0,0.18198819443646452,0.2157686696818677,0.04765056932794203,1253.2135832418858,17852.329658014824
2.321160580290145,899.1341572355601,899.257239147453,0.06859141229676394,0.0,0.1821170121858048,0.21563944945313443,0.047649932924482066,1253.123071338937,17866.27045030817
2.3311655827913955,899.1920943314356,899.3189595296406,0.06900910927134009,0.0,0.18224605881978803,0.21550999946970942,0.04764929514537437,1253.0323984537056,17880.194888950693
2.3411705852926463,899.2498927426736,899.3804499242823,0.06942754745075333,0.0,0.18237533441259776,0.21538031965787185,0.047648655991350514,1252.941564536044,17894.103012363594
2.3511755877938967,899.30755829915,899.4417187987949,0.06984672707786117,0.0,0.18250483904116693,0.21525040994110028,0.047648015463061126,1252.8505695337972,17907.9948589517
2.3611805902951475,899.3650966669228,899.5027743706219,0.07026664840433319,0.0,0.18263457278509662,0.2151202702401551,0.04764737356107798,1252.7594133928608,17921.870467099507
2.3711855927963983,899.4225133535981,899.5636246144493,0.07068731169038954,0.0,0.18276453572657686,0.2149899004731594,0.047646730285896034,1252.6680960572396,17935.72987516737
2.3811905952976486,899.4798137135876,899.6242772691913,0.07110871720454635,0.0,0.18289472795030912,0.21485930055567729,0.04764608563793535,1252.5766174691034,17949.573121487858
2.3911955977988995,899.5370029532654,899.6847398447477,0.07153086522336756,0.0,0.18302514954343135,0.2147284704007904,0.04764543961754304,1252.4849775688417,17963.400244362212
2.40120060030015,899.594086136033,899.74501962854,0.07195375603122288,0.0,0.18315580059544428,0.2145974099191725,0.047644792224995194,1252.393176295117,17977.21128205702
2.4112056028014006,899.6510681872996,899.8051236918296,0.07237738992005198,0.0,0.1832866811981399,0.21446611901916238,0.047644143460498625,1252.301213584916,17991.00627280099
2.4212106053026514,899.707953899389,899.865058895822,0.07280176718913438,0.0,0.18341779144553189,0.2143345976068345,0.04764349332419267,1252.2090893736033,18004.785254781887
2.431215607803902,899.7647479363791,899.9248318975604,0.07322688814486496,0.0,0.1835491314337872,0.21420284558606836,0.04764284181615096,1252.1168035949663,18018.548266143614
2.4412206103051526,899.8214548388852,899.9844491556131,0.07365275310053515,0.0,0.18368070126115987,0.21407086285861596,0.04764218893638308,1252.0243561812679,18032.29534498341
2.451225612806403,899.8780790287991,900.0439169355554,0.07407936237611894,0.0,0.18381250102792612,0.2139386493241676,0.04764153468483618,1251.9317470632911,18046.026529349194
2.4612306153076537,899.9346248139908,900.1032413152521,0.07450671629806442,0.0,0.18394453083632087,0.21380620488041643,0.04764087906139668,1251.838976170385,18059.741857237073
2.4712356178089045,899.9910963929867,900.1624281899363,0.07493481519908975,0.0,0.1840767907904761,0.21367352942312115,0.04764022206589177,1251.746043430511,18073.441366588915
2.481240620310155,900.0474978596342,900.221483277094,0.07536365941798388,0.0,0.18420928099636025,0.2135406228461675,0.0476395636980909,1251.652948770286,18087.12509529011
2.4912456228114057,900.103833207769,900.2804121211484,0.07579324929941195,0.0,0.18434200156171912,0.21340748504162818,0.0476389039577074,1251.5596921150252,18100.79308116742
2.501250625312656,900.1601063358925,900.3392200979504,0.07622358519372453,0.0,0.18447495259601818,0.21327411589982181,0.047638242844399825,1251.4662733887842,18114.445361987007
2.511255627813907,900.2163210518804,900.3979124190697,0.07665466745677117,0.0,0.18460813421038583,0.21314051530937025,0.04763758035777345,1251.3726925144008,18128.08197545253
2.5212606303151577,900.2724810777327,900.4564941358908,0.07708649644971763,0.0,0.18474154651755795,0.21300668315725502,0.047636916497381644,1251.2789494135345,18141.70295920339
2.531265632816408,900.3285900543835,900.5149701435104,0.07751907253886672,0.0,0.18487518963182353,0.21287261932887264,0.04763625126272724,1251.1850440067062,18155.308350813142
2.541270635317659,900.38465154659,900.5733451844337,0.0779523960954827,0.0,0.1850090636689715,0.21273832370808857,0.04763558465326389,1251.0909762133363,18168.89818778796
2.551275637818909,900.440669047917,900.631623852072,0.07838646749561852,0.0,0.18514316874623815,0.21260379617729064,0.04763491666839736,1250.996745951785,18182.4725075653
2.56128064032016,900.4966459858395,900.6898105940305,0.07882128711994632,0.0,0.18527750498225576,0.21246903661744115,0.047634247307486846,1250.902353139386,18196.031347512642
2.571285642821411,900.5525857269852,900.7479097151909,0.07925685535359034,0.0,0.1854120724970018,0.21233404490812857,0.04763357656984624,1250.807797692487,18209.574744926413
2.581290645322661,900.6084915825418,900.8059253805774,0.07969317258596247,0.0,0.18554687141174928,0.21219882092761813,0.04763290445474535,1250.7130795264839,18223.102737030982
2.591295647823912,900.6643668138544,900.8638616180075,0.08013023921059993,0.0,0.18568190184901706,0.21206336455290178,0.047632230961411164,1250.6181985558576,18236.61536097789
2.6013006503251623,900.7202146382433,900.921722320514,0.08056805562500488,0.0,0.1858171639325216,0.211927675659748,0.047631556089029074,1250.5231546942068,18250.112653845095
2.611305652826413,900.7760382350706,900.9795112485376,0.0810066222304856,0.0,0.18595265778712838,0.2117917541227502,0.04763087983674404,1250.4279478542876,18263.59465263647
2.621310655327664,900.8318407520931,901.0372320318777,0.08144593943199906,0.0,0.18608838353880436,0.21165559981537585,0.047630202203661834,1250.332577948044,18277.061394281413
2.6313156578289143,900.8876253121344,901.0948881713953,0.0818860076379946,0.0,0.1862243413145704,0.21151921261001436,0.047629523188850165,1250.2370448866443,18290.512915634605
2.641320660330165,900.9433950201202,901.152483040457,0.08232682726025826,0.0,0.18636053124245422,0.21138259237802506,0.047628842791339915,1250.141348580515,18303.949253475956
2.6513256628314155,900.9991529705161,901.210019886108,0.08276839871375732,0.0,0.18649695345144277,0.21124573898978524,0.04762816101012625,1250.0454889393752,18317.370444510696
2.6613306653326663,901.0549022552204,901.267501829965,0.08321072241648524,0.0,0.18663360807143556,0.21110865231473805,0.04762747784416987,1249.9494658722704,18330.776525369674
2.671335667833917,901.110645971958,901.3249318688149,0.08365379878930573,0.0,0.1867704952331972,0.21097133222144032,0.047626793292398106,1249.853279287608,18344.167532609834
2.6813406703351674,901.1663872332367,901.3823128749044,0.08409762825579645,0.0,0.18690761506830977,0.2108337785776111,0.04762610735370616,1249.7569290931897,18357.543502714918
2.6913456728364182,901.2221291759244,901.4396475959081,0.08454221124209127,0.0,0.1870449677091253,0.21069599125017996,0.04762542002695828,1249.6604151962483,18370.90447209631
2.7013506753376686,901.2778749715133,901.4969386545611,0.08498754817672077,0.0,0.18718255328871694,0.2105579701053365,0.04762473131098893,1249.563737503482,18384.25047709422
2.7113556778389194,901.3336278371467,901.5541885479352,0.08543363949045092,0.0,0.18732037194083023,0.2104197150085798,0.047624041204604096,1249.4668959210892,18397.58155397903
2.72136068034017,901.3893910474823,901.6113996463511,0.08588048561611868,0.0,0.18745842379983316,0.21028122582476946,0.04762334970658244,1249.3698903548066,18410.897738952914
2.7313656828414206,901.4451679474815,901.6685741919044,0.08632808698846468,0.0,0.18759670900066522,0.21014250241817684,0.047622656815676616,1249.2727207099442,18424.19906815176
2.7413706853426714,901.5009619662147,901.7257142965947,0.08677644404396208,0.0,0.1877352276787856,0.2100035446525382,0.04762196253061458,1249.1753868914238,18437.485577647407
2.7513756878439217,901.556776631783,901.7828219400403,0.08722555722064085,0.0,0.18787397997011976,0.2098643523911086,0.04762126685010088,1249.0778888038183,18450.757303450137
2.7613806903451725,901.6126155874633,901.8398989667724,0.08767542695790746,0.0,0.18801296601100465,0.20972492549671773,0.04762056977281808,1248.9802263513905,18464.014281511583
2.7713856928464233,901.668482609197,901.8969470830947,0.08812605369635855,0.0,0.1881521859381322,0.20958526383182724,0.047619871297428146,1248.8823994381344,18477.256547727997
2.7813906953476737,901.7243816245398,901.9539678535061,0.08857743787758857,0.0,0.18829163988849099,0.20944536725859025,0.04761917142257394,1248.7844079678177,18490.484137943895
2.7913956978489245,901.780316733215,902.0109626966874,0.08902957994399054,0.0,0.18843132799930545,0.20930523563891257,0.04761847014688072,1248.6862518440264,18503.69708795619
2.801400700350175,901.8362922294085,902.0679328810601,0.08948248033854884,0.0,0.18857125040797323,0.20916486883451682,0.04761776746895775,1248.5879309702093,18516.89543351874
2.8114057028514257,901.8923126259584,902.1248795199318,0.08993613950462431,0.0,0.18871140725199995,0.20902426670700874,0.04761706338739996,1248.489445249726,18530.079210347478
2.8214107053526765,901.9483826806052,902.1818035662643,0.09039055788572993,0.0,0.1888517986689309,0.20888342911794625,0.047616357900789635,1248.3907945858969,18543.248454126027
2.831415707853927,902.004507424467,902.2387058071004,0.09084573592529727,0.0,0.18899242479628026,0.2087423559289115,0.047615651007698274,1248.2919788820527,18556.403200511977
2.8414207103551776,902.0606921929267,902.2955868577217,0.091301674066433,0.0,0.18913328577145708,0.20860104700158616,0.047614942706688396,1248.192998041591,18569.543485143797
2.851425712856428,902.1169426591124,902.3524471556177,0.09175837275166478,0.0,0.18927438173168823,0.2084595021978297,0.047614232996315606,1248.0938519680296,18582.669343648387
2.861430715357679,902.1732648701684,902.4092869543872,0.09221583242267668,0.0,0.18941571281393804,0.20831772137976104,0.04761352187513055,1247.994540565067,18595.78081164953
2.8714357178589296,902.2296652865115,902.4661063177218,0.09267405352003347,0.0,0.1895572791548245,0.20817570440984362,0.04761280934168111,1247.895063736641,18608.87792477701
2.88144072036018,902.2861508242783,902.522905113663,0.09313303648289459,0.0,0.18969908089053264,0.20803345115097366,0.04761209539451461,1247.7954213869948,18621.960718676746
2.8914457228614308,902.3427289011573,902.5796830093816,0.09359278174871771,0.0,0.18984111815672403,0.20789096146657157,0.047611380032180135,1247.6956134207385,18635.029229021806
2.901450725362681,902.3994074858067,902.6364394667819,0.09405328975295277,0.0,0.1899833910884445,0.20774823522067654,0.0476106632532309,1247.5956397429204,18648.08349152447
2.911455727863932,902.4561951510389,902.6931737393094,0.09451456092872827,0.0,0.1901258998200284,0.20760527227804318,0.0476099450562267,1247.495500259093,18661.123541949455
2.9214607303651827,902.513101130944,902.7498848704203,0.09497659570653098,0.0,0.19026864448500166,0.20746207250424023,0.047609225439736357,1247.3951948753866,18674.14941612822
2.931465732866433,902.5701353821028,902.806571694272,0.09543939451388257,0.0,0.1904116252159834,0.20731863576575074,0.047608504402340324,1247.294723498577,18687.161149974676
2.941470735367684,902.6273086489969,902.8632328393055,0.09590295777501599,0.0,0.19055484214458762,0.20717496193007154,0.04760778194263308,1247.1940860361608,18700.158779502133
2.9514757378689342,902.6846325336986,902.919866735512,0.09636728591055656,0.0,0.19069829540132646,0.20703105086581194,0.04760705805922569,1247.0932823964229,18713.142340841794
2.961480740370185,902.7421195698514,902.9764716263262,0.09683237933721389,0.0,0.1908419851155166,0.2068869024427887,0.04760633275074811,1246.9923124885054,18726.111870262714
2.971485742871436,902.7997833008968,903.0330455862428,0.09729823846749122,0.0,0.1909859114151909,0.2067425165321157,0.04760560601585144,1246.8911762224714,18739.06740419342
2.981490745372686,902.857638362407,903.0895865454213,0.09776486370942246,0.0,0.1911300744270184,0.20659789300628523,0.04760487785320988,1246.7898735093638,18752.008979245213
2.991495747873937,902.9157005682885,903.1460923227355,0.09823225546634723,0.0,0.19127447427623612,0.20645303173923732,0.04760414826152237,1246.6884042612535,18764.936632237284
3.0015007503751874,902.9739870004896,903.2025606689056,0.09870041413673752,0.0,0.1914191110865961,0.20630793260641345,0.04760341723951387,1246.5867683912788,18777.850400223633
3.011505752876438,903.0325161017043,903.2589893215476,0.09916934011409277,0.0,0.19156398498033342,0.20616259548478874,0.04760268478593594,1246.4849658136677,18790.75032052198
3.0215107553776885,903.0913077703922,903.3153760741567,0.0996390337869212,0.0,0.1917090960781604,0.2060170202528781,0.04760195089956669,1246.3829964437416,18803.636430744566
3.0315157578789393,903.1503834572375,903.3717188611978,0.10010949553883089,0.0,0.1918544444992938,0.2058712067907079,0.04760121557920976,1246.2808601978963,18816.508768831005
3.04152076038019,903.2097662619614,903.4280158616148,0.1005807257487552,0.0,0.19200003036152324,0.20572515497974667,0.047600478823692186,1246.178556993551,18829.36737308308
3.0515257628814405,903.2694810291446,903.4842656231284,0.10105272479134239,0.0,0.1921458537813287,0.205578864702785,0.04759974063186091,1246.0760867490624,18842.21228220158
3.0615307653826913,903.3295544414735,903.5404672096956,0.10152549303754227,0.0,0.19229191487405858,0.2054323358437546,0.047599001002577586,1245.9734493835947,18855.043535324974
3.0715357678839417,903.3900151085355,903.5966203743858,0.10199903085542628,0.0,0.19243821375417752,0.2052855682874753,0.0475982599347115,1245.8706448169396,18867.86117207001
3.0815407703851925,903.4508936490076,903.6527257596852,0.1024733386112812,0.0,0.19258475053559848,0.20513856191931798,0.04759751742713012,1245.7676729692726,18880.665232573938
3.0915457728864433,903.5122227638069,903.7087851268259,0.10294841667101948,0.0,0.19273152533210958,0.2049913166247694,0.0475967734786871,1245.664533760844,18893.455757538253
3.1015507753876936,903.5740372974948,903.7648016151252,0.10342426540195136,0.0,0.19287853825791137,0.20484383228888559,0.047596028088207135,1245.5612271115845,18906.232788273686
3.1115557778889444,903.6363742850014,903.8207800314883,0.10390088517496525,0.0,0.19302578942827764,0.20469610879561928,0.047595281254467485,1245.457752940626,18918.99636674619
3.121560780390195,903.6992729805447,903.8767271691453,0.10437827636716268,0.0,0.1931732789603542,0.20454814602700713,0.047594532976175635,1245.3541111657185,18931.7465356234
3.1315657828914456,903.7627748654976,903.9326521533629,0.10485643936499214,0.0,0.19332100697410864,0.20439994386220306,0.04759378325194281,1245.250301702537,18944.483338321348
3.1415707853926964,903.8269236319494,903.9885668102985,0.10533537456792187,0.0,0.19346897359344403,0.20425150217634505,0.047593032080252944,1245.1463244638726,18957.206819050716
3.1515757878939468,903.8917651387771,904.0444860533764,0.10581508239268539,0.0,0.19361717894748567,0.20410282083924566,0.047592279459426824,1245.0421793586925,18969.917022862133
3.1615807903951976,903.9573473372906,904.10042827963,0.10629556327812362,0.0,0.1937656231720492,0.203953899713898,0.047591525387581234,1244.937866291072,18982.61399568991
3.171585792896448,904.0237201638846,904.156415766454,0.10677681769063489,0.0,0.1939143064112928,0.20380473865479456,0.04759076986258295,1244.8333851589894,18995.297784393446
3.1815907953976987,904.0909353976889,904.2124750572664,0.10725884613022935,0.0,0.19406322881955268,0.20365533750605927,0.04759001288199761,1244.7287358529904,19007.96843679557
3.1915957978989495,904.1590464819154,904.2686373228404,0.1077416491371642,0.0,0.19421239056335474,0.20350569609940045,0.047589254443033614,1244.6239182547208,19020.626001717068
3.2016008004002,904.2281083084902,904.324938683697,0.10822522729911703,0.0,0.19436179182358923,0.20335581425189778,0.04758849454248157,1244.5189322353435,19033.270529006597
3.2116058029014507,904.2981769665713,904.3814204781177,0.10870958125882985,0.0,0.19451143279782815,0.20320569176364373,0.047587733176649355,1244.4137776538491,19045.90206956517
3.221610805402701,904.3693094566877,904.4381294602205,0.10919471172213326,0.0,0.19466131370275783,0.20305532841526827,0.04758697034129417,1244.308454355283,19058.5206753645
3.231615807903952,904.4415633734212,904.4951179132562,0.10968061946623656,0.0,0.19481143477669205,0.20290472396538092,0.04758620603155192,1244.2029621689157,19071.126399458524
3.2416208104052027,904.5149965607538,904.5524436649247,0.11016730534814662,0.0,0.19496179628212404,0.2027538781479731,0.04758544024186537,1244.097300906381,19083.719295987426
3.251625812906453,904.5896667453354,904.6101699940956,0.11065477031305926,0.0,0.19511239850826997,0.2026027906698295,0.04758467296591215,1243.9914703598229,19096.299420173753
3.261630815407704,904.6656311539332,904.6683654217686,0.1111430154025519,0.0,0.19526324177355203,0.20245146120800012,0.04758390419653418,1243.8854703000857,19108.866828310183
3.271635817908954,904.742946122143,904.7271033832889,0.1116320417623958,0.0,0.1954143264279658,0.20229988940738983,0.047583133925669735,1243.7793004749856,19121.421577738794
3.281640820410205,904.8216667019939,904.786461783506,0.112121850649804,0.0,0.19556565285527625,0.20214807487852246,0.04758236214428984,1243.6729606077108,19133.96372682174
3.291645822911456,904.9018462763554,904.8465224414314,0.11261244343993458,0.0,0.19571722147498752,0.20199601719553398,0.0475815888423403,1243.566450395382,19146.49333490346
3.301650825412706,904.9835361879957,904.9073704356944,0.11310382163147988,0.0,0.19586903274403528,0.2018437158944483,0.04758081400869078,1243.4597695078155,19159.01046226478
3.311655827913957,905.0667853907739,904.9690933663767,0.11359598685119111,0.0,0.19602108715815542,0.20169117047178128,0.047580037631092184,1243.352917586523,19171.515170069262
3.3216608304152073,905.1516401297671,905.0317805523271,0.11408894085721122,0.0,0.19617338525289116,0.20153838038351254,0.04757925969614309,1243.245894243971,19184.00752030255
3.331665832916458,905.2381436562017,905.0955221855826,0.11458268554111863,0.0,0.19632592760420847,0.20138534504445535,0.04757848018926634,1243.1386990631268,19196.487575705378
3.341670835417709,905.3263359819109,905.1604084658914,0.11507722292861572,0.0,0.19647871482869966,0.20123206382804443,0.04757769909469588,1243.0313315973015,19208.955399701095
3.3516758379189593,905.4162536767617,905.2265287385113,0.1155725551788307,0.0,0.19663174758336605,0.20107853606655196,0.047576916395474414,1242.9237913703012,19221.411056318797
3.36168084042021,905.5079297111478,905.2939706574756,0.11606868458223366,0.0,0.19678502656497943,0.20092476105173138,0.04757613207346146,1242.8160778768804,19233.85461011286
3.3716858429214605,905.6013933443057,905.3628193945107,0.11656561355719948,0.0,0.19693855250903183,0.2007707380358788,0.04757534610935167,1242.7081905834968,19246.286126080056
3.3816908454227113,905.6966700579438,905.4331569109838,0.11706334464527819,0.0,0.19709232618829325,0.20061646623329335,0.047574558482702686,1242.6001289293483,19258.70566957523
3.391695847923962,905.7937815335337,905.5050613068605,0.11756188050525597,0.0,0.19724634841100036,0.2004619448221113,0.04757376917197183,1242.4918923276775,19271.1133062265
3.4017008504252124,905.8927456706409,905.5786062569475,0.11806122390610867,0.0,0.19740062001870923,0.20030717294648173,0.04757297815456068,1242.3834801673204,19283.509101850916
3.4117058529264632,905.9935766428883,905.6538605409356,0.11856137771896133,0.0,0.19755514188384457,0.2001521497190497,0.04757218540686636,1242.2748918144725,19295.893122371464
3.4217108554277136,906.09628498757,905.7308876701292,0.11906234490817406,0.0,0.1977099149069828,0.19999687422370907,0.04757139090433848,1242.1661266146486,19308.2654337362
3.4317158579289644,906.2008777245546,905.8097456104716,0.11956412852167533,0.0,0.19786494001390562,0.19984134551858815,0.047570594621540625,1242.0571838948067,19320.626101840073
3.441720860430215,906.3073584999323,905.8904865986323,0.1200667316806603,0.0,0.1980202181524589,0.19968556263923143,0.04756979653221515,1241.94806296561,19332.975192450158
3.4517258629314655,906.4157277498307,905.9731570456204,0.1205701575687634,0.0,0.1981757502892503,0.19952952460194442,0.04756899660935016,1241.8387631238058,19345.31277113467
3.4617308654327164,906.5259828799585,906.0577975206265,0.12107440942080275,0.0,0.19833153740621526,0.19937323040727103,0.04756819482524784,1241.729283654698,19357.638903196155
3.4717358679339667,906.6381184566532,906.1444428065897,0.12157949051117978,0.0,0.19848758049707588,0.19921667904357787,0.047567391151592836,1241.6196238346915,19369.95365360907
3.4817408704352175,906.7521264055408,906.2331220182656,0.12208540414200066,0.0,0.19864388056371307,0.19905986949072504,0.047566585559520265,1241.5097829338986,19382.257086962032
3.4917458729364683,906.8679962142845,906.323858773308,0.12259215363096909,0.0,0.1988004386124663,0.19890280072380856,0.047565778019682335,1241.3997602187942,19394.54926740472
3.5017508754377187,906.9857151363103,906.4166714069574,0.12309974229908043,0.0,0.19895725565037045,0.19874547171696444,0.047564968502312975,1241.2895549549114,19406.83025859952
3.5117558779389695,907.1052683928192,906.5115732213218,0.12360817345812962,0.0,0.19911433268133238,0.19858788144723152,0.04756415697729019,1241.179166409578,19419.100123677854
3.52176088044022,907.2266393708157,906.6085727608258,0.12411745039802435,0.0,0.1992716707022449,0.19843002889847525,0.04756334341419548,1241.0685938546915,19431.35892520107
3.5317658829414706,907.3498098152832,906.7076741061501,0.12462757637387882,0.0,0.19942927069902952,0.19827191306538003,0.0475625277823701,1240.9578365695425,19443.606725125785
3.5417708854427215,907.474760014008,906.8088771798106,0.12513855459284226,0.0,0.19958713364259456,0.1981135329575252,0.04756171005096815,1240.846893843689,19455.843584773505
3.551775887943972,907.6014689739043,906.9121780574008,0.12565038820060004,0.0,0.19974526048468846,0.1979548876035629,0.04756089018900597,1240.7357649799062,19468.069564804315
3.5617808904452226,907.729914587991,907.0175692793775,0.12616308026746637,0.0,0.19990365215362293,0.19779597605552368,0.0475600681654081,1240.6244492972162,19480.284725194393
3.571785892946473,907.8600737924401,907.1250401591134,0.12667663377396995,0.0,0.20006230954983642,0.19763679739328022,0.047559243949049715,1240.51294613403,19492.48912521717
3.5817908954477238,907.991922713353,907.2345770837084,0.12719105159581576,0.0,0.20022123354126029,0.19747735072920555,0.04755841750879547,1240.4012548514195,19504.682823427825
3.5917958979489746,908.1254368031078,907.3461638047827,0.12770633648808755,0.0,0.20038042495844702,0.1973176352130672,0.047557588813534904,1240.2893748365532,19516.86587765094
3.601800900450225,908.2605909662881,907.4597817170975,0.128222491068538,0.0,0.20053988458941208,0.1971576500372059,0.04755675783221464,1240.1773055063286,19529.038344970995
3.6118059029514757,908.3973596753272,907.5754101234207,0.12873951779979187,0.0,0.20069961317413582,0.1969973944420516,0.047555924533867255,1240.065046311234,19541.20028172553
3.621810905452726,908.5357170761107,907.6930264845398,0.12925741897026746,0.0,0.20085961139866548,0.19683686772203834,0.047555088887637195,1239.9525967394907,19553.3517435007
3.631815907953977,908.6756370838523,907.8126066537321,0.12977619667359946,0.0,0.201019879888749,0.19667606923198452,0.04755425086280378,1239.839956321514,19565.492785129
3.6418209104552277,908.8170934696154,907.9341250953489,0.1302958527863209,0.0,0.201180419202927,0.19651499839401407,0.04755341042880161,1239.7271246347493,19577.62346068893
3.651825912956478,908.9600599378941,908.0575550874522,0.13081638894353573,0.0,0.20134122982499886,0.19635365470510166,0.047552567555238366,1239.6141013089455,19589.743823506455
3.661830915457729,909.104510195684,908.1828689086644,0.1313378065122843,0.0,0.20150231215577055,0.19619203774533445,0.04755172221191031,1239.5008860319203,19601.85392615794
3.6718359179589792,909.2504180134877,908.3100380095707,0.1318601065622707,0.0,0.20166366650398285,0.19603014718699271,0.04755087436881567,1239.387478555898,19613.953820474508
3.68184092046023,909.3977572786952,908.4390331691458,0.13238328983358577,0.0,0.20182529307630465,0.1958679828045632,0.04755002399616598,1239.2738787044968,19626.043557547582
3.691845922961481,909.5465020417714,908.569824636775,0.13290735670101905,0.0,0.20198719196626702,0.19570554448581165,0.047549171064395684,1239.1600863804488,19638.123187735382
3.701850925462731,909.696626555662,908.702382260504,0.13343230713450802,0.0,0.2021493631419968,0.19554283224405394,0.04754831554417006,1239.0461015741585,19650.192760670365
3.711855927963982,909.848105308811,908.836675602193,0.1339581406552245,0.0,0.20231180643259536,0.19537984623178145,0.047547457406391685,1238.9319243732027,19662.25232526734
3.7218609304652324,910.000913052151,908.9726740402697,0.134484856286741,0.0,0.20247452151298923,0.19521658675581363,0.04754659662220552,1238.817554972891,19674.301929732188
3.731865932966483,910.1550248203973,909.1103468607786,0.13501245250066085,0.0,0.20263750788706208,0.19505305429416847,0.047545733163002854,1238.7029936880267,19686.34162157103
3.741870935467734,910.3104159479436,909.2496633374063,0.13554092715602495,0.0,0.2028007648688546,0.19488924951486467,0.04754486700042417,1238.5882409660105,19698.37144759971
3.7518759379689843,910.4670620796201,909.3905928011476,0.13607027743173536,0.0,0.20296429156159632,0.19472517329689085,0.047543998106361084,1238.4732974014544,19710.39145395354
3.761880940470235,910.6249391765353,909.5331047002342,0.13660049975115032,0.0,0.20312808683430794,0.1945608267536038,0.047543126452957454,1238.3581637524867,19722.40168609714
3.7718859429714855,910.7840235171865,909.6771686509177,0.13713158969791375,0.0,0.2032921492956827,0.19439621125884787,0.04754225201260986,1238.2428409589563,19734.40218883427
3.7818909454727363,910.9442916939768,909.8227544796476,0.13766354192198138,0.0,0.20345647726492536,0.19423132847611524,0.047541374757967436,1238.127330162749,19746.393006317638
3.791895947973987,911.1057206052424,909.9698322571402,0.13819635003469344,0.0,0.20362106873919164,0.19406618039110665,0.04754049466193126,1238.0116327304818,19758.37418205844
3.8019009504752375,911.2682874428456,910.1183723247789,0.1387300064916237,0.0,0.2037859213572345,0.19390076934808417,0.047539611697653326,1237.8957502788307,19770.345758935728
3.8119059529764883,911.4319696753447,910.2683453137406,0.13926450246180183,0.0,0.20395103235882125,0.19373509809045347,0.047538725838535335,1237.7796847028114,19782.30777920531
3.8219109554777386,911.5967450267128,910.4197221571776,0.13979982768176258,0.0,0.20411639853944252,0.19356916980605376,0.047537837058227075,1237.6634382073394,19794.26028450828
3.8319159579789894,911.762591450524,910.5724740957361,0.14033597029272485,0.0,0.20428201619978573,0.19340298817768334,0.04753694533062496,1237.5470133424355,19806.203315878964
3.8419209604802402,911.9294870994876,910.7265726766373,0.14087291665903678,0.0,0.2044478810893954,0.19323655743943827,0.04753605062987037,1237.430413042487,19818.13691375224
3.8519259629814906,912.0974102901564,910.8819897464834,0.1414106511658543,0.0,0.20461398834388939,0.1930698824394953,0.047535152930348094,1237.3136406699941,19830.06111797011
3.8619309654827414,912.2663394625935,911.038697437901,0.14194915599383787,0.0,0.20478033241504365,0.19290296871002616,0.04753425220668499,1237.1967000642906,19841.975967787464
3.8719359679839918,912.4362531347304,911.1966681500771,0.14248841086847105,0.0,0.20494690699300178,0.19273582254498706,0.04753334843374877,1237.0795955957508,19853.881501876884
3.8819409704852426,912.6071298511049,911.3558745231866,0.14302839278141655,0.0,0.2051137049198079,0.19256845108658546,0.04753244158664724,1236.9623322260404,19865.777758332457
3.891945972986493,912.7789481256191,911.5162894066591,0.1435690756811461,0.0,0.2052807180934052,0.19240086242128157,0.04753153164072782,1236.8449155750184,19877.664774672354
3.9019509754877437,912.9516863779126,911.6778858211763,0.14411043012990968,0.0,0.205447937361189,0.19223306568623483,0.047530618571577685,1236.7273519949106,19889.542587840224
3.9119559779889945,913.125322862907,911.8406369142492,0.1446524229239587,0.0,0.20561535240215778,0.19206507118715344,0.04752970235502439,1236.6096486524352,19901.41123420509
3.921960980490245,913.2998355930408,912.0045159091707,0.1451950166738212,0.0,0.20578295159666826,0.19189689052854042,0.04752878296713734,1236.4918136195633,19913.27074955979
3.9319659829914957,913.4752022526799,912.1694960471026,0.14573816934135436,0.0,0.20595072188277797,0.1917285367573521,0.047527860384229896,1236.3738559736296,19925.121169117672
3.941970985492746,913.6514001041752,912.335550522025,0.1462818337302935,0.0,0.20611864859815834,0.19156002452108742,0.04752693458286251,1236.2557859074955,19936.962527507443
3.951975987993997,913.8284058850278,912.5026524082391,0.1468259569271035,0.0,0.20628671530658574,0.19139137024129887,0.047526005539846865,1236.1376148504642,19948.794858766036
3.9619809904952477,914.0061956956334,912.6707745801122,0.14737047968913833,0.0,0.2064549036080824,0.19122259230345545,0.0475250732322511,1236.0193556005859,19960.618196329277
3.971985992996498,914.1847448771115,912.8398896237476,0.14791533577747176,0.0,0.2066231929318891,0.19105371126397389,0.04752413763740643,1235.9010224689307,19972.432573020138
3.981990995497749,914.3640278787885,913.0099697402806,0.148460451232315,0.0,0.2067915603116213,0.19088475007506756,0.04752319873291505,1235.782631436278,19984.238021034464
3.991995997998999,914.544018115,913.1809866405448,0.1490057435897298,0.0,0.20695998014221015,0.19071573432781155,0.047522256496659705,1235.6642003224972,19996.034571923916
4.00200100050025,914.7246878110243,913.3529114309277,0.1495511210394457,0.0,0.20712842391856714,0.19054669251348505,0.04752131090681486,1235.5457489686694,20007.822256575928
4.012006003001501,914.906007838157,913.5257144903311,0.15009648152504437,0.0,0.2072968599563654,0.19037765630279854,0.04752036194185988,1235.4272994316702,20019.601105190468
4.022011005502751,915.0879475382034,913.6993653383153,0.15064171178966734,0.0,0.2074652530959162,0.19020866084202648,0.04751940958059401,1235.3088761905337,20031.37114725347
4.0320160080040015,915.2704745380057,913.873832494692,0.15118668637279187,0.0,0.20763356439086206,0.19003974506432525,0.04751845380215369,1235.1905063634001,20043.132411506624
4.042021010505253,915.4535545550555,914.0490833310986,0.15173126656658273,0.0,0.20780175078432586,0.18987095201359663,0.047517494586032175,1235.072219933204,20054.884925913462
4.052026013006503,915.6371511957713,914.2250839154053,0.1522752993439207,0.0,0.2079697647762707,0.18970232917714172,0.047516531912101465,1234.9540499794896,20066.628717621526
4.0620310155077535,915.8212257486633,914.4017988502085,0.1528186162744802,0.0,0.20813755408715168,0.18953392882202463,0.04751556576063703,1234.8360329128122,20078.3638129206
4.072036018009005,916.0057369753579,914.5791911071361,0.15336103245019095,0.0,0.2083050613244792,0.18936580832852665,0.047514596112345125,1234.7182087071112,20090.090237196793
4.082041020510255,916.1906409033195,914.7572218592501,0.15390234544705145,0.0,0.20847222366066254,0.1891980305123218,0.04751362294839293,1234.6006211242245,20101.80801488269
4.092046023011505,916.3758906250798,914.935850314459,0.15444233435646854,0.0,0.20863897253242725,0.18903066392507994,0.04751264625044147,1234.4833179233683,20113.51716940355
4.102051025512757,916.5614361098288,915.1150335535564,0.1549807589259128,0.0,0.20880523337415458,0.18886378312115032,0.0475116660006815,1234.3663510469833,20125.217723119782
4.112056028014007,916.7472240343204,915.2947263772448,0.15551735885542434,0.0,0.20897092539958168,0.18869746887588573,0.047510682181872016,1234.2497767728776,20136.909697266106
4.122061030515257,916.933197641127,915.474881167262,0.1560518533029829,0.0,0.2091359614483142,0.18853180833915592,0.047509694777381546,1234.1336558212104,20148.593111887792
4.132066033016508,917.1192966332812,915.6554477674656,0.15658394065742554,0.0,0.20930024791536075,0.18836689510584073,0.0475087037712318,1234.0180534036165,20160.267985774764
4.142071035517759,917.3054571151529,915.8363733913781,0.15711329864179605,0.0,0.2094636847832034,0.1882028291837887,0.047507709148143416,1233.903039200888,20171.934336394315
4.152076038019009,917.4916115899296,916.0176025631821,0.15763958481191281,0.0,0.2096261657765076,0.18803971683913692,0.047506710893583486,1233.7886872551871,20183.592179823543
4.16208104052026,917.6776890241489,916.1990770994121,0.1581624375136692,0.0,0.20978757865918157,0.18787767029928273,0.047505708993814184,1233.6750757630653,20195.241530682786
4.172086043021511,917.8636149892379,916.3807361385047,0.15868147735724958,0.0,0.20994780569183966,0.18771680729545134,0.04750470343594187,1233.5622867567085,20206.88240207143
4.182091045522761,918.049311888826,916.562516224877,0.15919630925621855,0.0,0.21010672426455207,0.18755725042997687,0.047503694207966025,1233.4504056630296,20218.51480550783
4.192096048024012,918.2346992785912,916.744351453217,0.15970652506374455,0.0,0.21026420771489265,0.1873991263582849,0.04750268129882696,1233.3395207336375,20230.13875087507
4.202101050525263,918.4196942825547,916.926173677139,0.16021170681685215,0.0,0.21042012633466542,0.18724256478219478,0.047501664698451414,1233.2297223433263,20241.75424637442
4.212106053026513,918.6042121060391,917.1079127842879,0.16071143057290307,0.0,0.21057434856040838,0.18708769725944263,0.04750064439779502,1233.1211021604968,20253.36129848852
4.222111055527764,918.7881666411006,917.2894970374006,0.16120527079148508,0.0,0.21072674233314537,0.18693465584395383,0.047499620388880524,1233.0137521996382,20264.959911955997
4.232116058029014,918.9714711553486,917.4708534778716,0.16169280518128626,0.0,0.21087717660243152,0.18678357158181808,0.04749859266483068,1232.9077637732578,20276.550089759334
4.242121060530265,919.1540390499856,917.6519083852,0.16217361989777604,0.0,0.2110255229392616,0.18663457289839838,0.04749756121989494,1232.8032263679502,20288.13183312741
4.252126063031516,919.3357846680797,917.8325877825326,0.1626473149465519,0.0,0.21117165721280282,0.1864877839216099,0.047496526049468864,1232.7002264759863,20299.70514155388
4.262131065532766,919.516624129945,918.0128179756549,0.16311350962222176,0.0,0.21131546127815945,0.18634332279416338,0.04749548715010566,1232.5988464192178,20311.270012832014
4.272136068034017,919.6964761695161,918.1925261104715,0.1635718477966876,0.0,0.21145682461740928,0.1862013000325299,0.04749444451951924,1232.499163205539,20322.826443106223
4.282141070535268,919.8752629441318,918.3716407325129,0.16402200286604865,0.0,0.21159564587471066,0.18606181699183097,0.047493398156578534,1232.4012474591657,20334.374426939925
4.292146073036518,920.0529107904229,918.5500923314872,0.1644636821734202,0.0,0.21173183422878308,0.18592496449334814,0.047492348061293044,1232.3051624642371,20345.9139573988
4.302151075537768,920.2293509011078,918.7278138544425,0.16489663074577954,0.0,0.2118653105525264,0.18579082166488978,0.04749129423478976,1232.2109633567477,20357.445026148038
4.31215607803902,920.4045199012845,918.9047411726805,0.16532063421512436,0.0,0.21199600831952395,0.18565945503426776,0.04749023667928203,1232.1186964928588,20368.967623561653
4.32216108054027,920.5783603079601,919.0808134900557,0.1657355208350677,0.0,0.21212387422985013,0.18553091790346582,0.04748917539803104,1232.0283990128082,20380.481738841634
4.33216608304152,920.7508208626128,919.2559736834214,0.16614116254988673,0.0,0.2122488685418426,0.18540525001683883,0.047488110395300716,1231.9400986097153,20391.98736014443
4.3421710855427715,920.9218567329771,919.4301685695174,0.16653747511990183,0.0,0.21237096511104064,0.1852824775221424,0.047487041676307226,1231.8538135024412,20403.484474712062
4.352176088044022,921.0914295864579,919.6033490961696,0.1669244173509265,0.0,0.21249015115110248,0.18516261320958086,0.047485969247164056,1231.7695526021814,20414.97306900536
4.362181090545272,921.2595075430901,919.7754704590411,0.1673019895130583,0.0,0.21260642674316185,0.1850456570024139,0.04748489311482381,1231.6873158543565,20426.4531288367
4.3721860930465235,921.4260650204416,919.9464921480746,0.167670231062831,0.0,0.2127198041290031,0.18493159666374337,0.047483813287017916,1231.6070947311387,20437.92463950006
4.382191095547774,921.5910824860596,920.1163779300676,0.16802921780153998,0.0,0.21283030682926868,0.1848204086782668,0.0474827297721952,1231.5288728459027,20449.387585896322
4.392196098049024,921.7545461349442,920.2850957754265,0.1683790586112486,0.0,0.2129379686306096,0.18471205926508807,0.04748164257946033,1231.452626658998,20460.84195265225
4.402201100550275,921.9164475101438,920.4526177380601,0.16871989190940648,0.0,0.2130428324855115,0.18460650547785318,0.047480551718512974,1231.3783262443699,20472.287724231843
4.412206103051526,922.0767830841058,920.6189197976761,0.16905188195481208,0.0,0.21314494936598452,0.18450369635102207,0.04747945719958827,1231.305936088323,20483.72488503915
4.422211105552776,922.2355538170991,920.7839816735027,0.1693752151236909,0.0,0.2132443771079741,0.18440357405542196,0.04747835903339936,1231.2354158947526,20495.153419511986
4.4322161080540265,922.3927647071083,920.9477866178397,0.1696900962569722,0.0,0.21334117927786056,0.1843060750317128,0.04747725723108221,1231.1667213749786,20506.573312206317
4.442221110555278,922.5484243433473,921.1103211969363,0.16999674516043645,0.0,0.213435424086391,0.18421113107642226,0.047476151804143225,1231.0998050045243,20517.984547871314
4.452226113056528,922.7025444731601,921.271575065648,0.17029539331973556,0.0,0.21352718336928533,0.18411867036130794,0.04747504276440966,1231.0346167334342,20529.38711151529
4.4622311155577785,922.855139589752,921.4315407412234,0.1705862808738067,0.0,0.21361653164802186,0.18402861837254303,0.04747393012398318,1230.9711046407174,20540.780988462928
4.47223611805903,923.0062265460309,921.5902133804827,0.17086965387345832,0.0,0.21370354527911245,0.18394089876141315,0.04747281389519638,1230.9092155271262,20552.16616440433
4.48224112056028,923.1558241979486,921.7475905636603,0.1711457618377941,0.0,0.2137883016957989,0.18385543410259472,0.04747169409057233,1230.8488954435336,20563.54262543647
4.4922461230615305,923.3039530791282,921.9036720872884,0.17141485560944603,0.0,0.2138708787424722,0.18377214655971166,0.047470570722787216,1230.7900901546961,20574.910358097703
4.502251125562781,923.4506351072642,922.0584597677318,0.17167718550058628,0.0,0.21395135409932342,0.1836909584606631,0.04746944380463559,1230.7327455401437,20586.26934939603
4.512256128064032,923.5958933217837,922.211957256367,0.17193299971505013,0.0,0.214029804792675,0.18361179278727136,0.04746831334899854,1230.6768079353592,20597.619586831705
4.5222611305652824,923.7397516515099,922.3641698668783,0.1721825430273236,0.0,0.21410630678502093,0.18353457358522357,0.04746717936881437,1230.6222244174194,20608.961058414865
4.532266133066533,923.8822347105615,922.5151044147643,0.17242605569637934,0.0,0.21418093463794347,0.18345922630113773,0.0474660418770516,1230.5689430398531,20620.293752678845
4.542271135567784,924.0233676203977,922.6647690688429,0.17266377259097732,0.0,0.21425376124065126,0.1833856780540093,0.04746490088668431,1230.516913021771,20631.617658689585
4.552276138069034,924.1631758557469,922.8131732143496,0.17289592250283925,0.0,0.21432485759681774,0.18331385784835794,0.04746375641066958,1230.466084896374,20642.93276605182
4.562281140570285,924.3016851121016,922.9603273270641,0.17312272762458383,0.0,0.21439429266254845,0.18324369673624757,0.04746260846192682,1230.4164106238318,20654.239064912363
4.572286143071536,924.4389211925056,923.1062428578292,0.17334440317061825,0.0,0.21446213322871074,0.1831751279349447,0.0474614570533189,1230.3678436732519,20665.53654596104
4.582291145572786,924.574909911435,923.2509321267668,0.1735611571205333,0.0,0.2145284438412792,0.1831080869065619,0.04746030219763496,1230.3203390781578,20676.82520042949
4.592296148074037,924.7096770137307,923.394408226492,0.17377319006646447,0.0,0.2145932867539447,0.18304251140543915,0.04745914390757477,1230.2738534694877,20688.105020088326
4.602301150575287,924.8432481066836,923.5366849336269,0.17398069514760098,0.0,0.21465672190776774,0.182978341498481,0.047457982195734424,1230.2283450897473,20699.37599724279
4.612306153076538,924.9756486035504,923.6777766279405,0.17418385805693784,0.0,0.21471880693325165,0.18291551956307583,0.04745681707459338,1230.1837737915446,20710.63812472729
4.622311155577789,925.1069036769522,923.8176982184779,0.1743828571071427,0.0,0.2147795971707607,0.18285399026666957,0.04745564855650268,1230.1401010233378,20721.891395898856
4.632316158079039,925.2370382207745,923.9564650760793,0.17457786334409794,0.0,0.21483914570573445,0.18279370053154512,0.0474544766536743,1230.0972898048794,20733.135804629914
4.64232116058029,925.3660768193483,924.0940929717337,0.1747690406982271,0.0,0.21489750341562805,0.18273459948787568,0.047453301378171456,1230.0553046944865,20744.371345300387
4.652326163081541,925.494043722845,924.230598020252,0.17495654616514822,0.0,0.21495471902595453,0.18267663841767703,0.047452122741899846,1230.0141117499722,20755.59801278924
4.662331165582791,925.6209628279448,924.3659966287947,0.17514053000844543,0.0,0.21501083917319172,0.18261977069189556,0.047450940756599815,1229.9736784847942,20766.815802465746
4.672336168084042,925.7468576629784,924.500305449824,0.1753211359785336,0.0,0.21506590847268459,0.1825639517025015,0.04744975543383925,1229.933973820723,20778.0247101804
4.682341170585293,925.8717513768354,924.6335413380929,0.17549850154250776,0.0,0.21511996958995697,0.18250913879117306,0.047448566785007265,1229.8949680381363,20789.224732255618
4.692346173086543,925.9956667310422,924.7657213113171,0.17567275812079802,0.0,0.21517306331413666,0.182455291175868,0.047447374821308425,1229.8566327248411,20800.415865476327
4.702351175587793,926.1186260944909,924.8968625142132,0.17584403132715598,0.0,0.2152252286324149,0.18240236987636071,0.047446179553757815,1229.8189407241769,20811.598107080492
4.712356178089045,926.2406514403855,925.0269821856132,0.17601244120918316,0.0,0.21527650280467509,0.1823503376396106,0.04744498099317652,1229.7818660830005,20822.771454749563
4.722361180590295,926.3617643450231,925.156097628392,0.17617810248710236,0.0,0.2153269214375776,0.1822991588656751,0.04744377915018764,1229.7453840000535,20833.93590659895
4.732366183091545,926.481985988102,925.2842261819778,0.1763411247890184,0.0,0.21537651855755519,0.18224879953471182,0.04744257403521291,1229.7094707750846,20845.091461168566
4.742371185592797,926.601337154278,925.4113851972246,0.17650161288120794,0.0,0.21542532668226744,0.18219922713552233,0.04744136565846971,1229.6741037590543,20856.238117413366
4.752376188094047,926.71983823575,925.5375920134574,0.17665966689240784,0.0,0.2154733768901929,0.1821504105959583,0.047440154029968463,1229.63926130563,20867.37587469406
4.762381190595297,926.8375092356797,925.6628639375141,0.1768153825312748,0.0,0.2155206988881036,0.18210232021544578,0.04743893915951051,1229.6049227241629,20878.504732767848
4.7723861930965485,926.9543697722842,925.7872182246248,0.17696885129644438,0.0,0.2155673210762428,0.18205492759980607,0.0474377210566863,1229.5710682342624,20889.62469177934
4.782391195597799,927.0704390834685,925.9106720609792,0.17712016067880437,0.0,0.21561327061108818,0.18200820559849185,0.047436499730873875,1229.5376789220584,20900.735752251578
4.792396198099049,927.1857360318849,926.0332425478582,0.17726939435575537,0.0,0.21565857346562858,0.18196212824430955,0.04743527519123783,1229.5047366981903,20911.837915077154
4.8024012006003,927.3002791103232,926.1549466872008,0.17741663237733354,0.0,0.215703254487116,0.18191667069566683,0.04743404744672833,1229.4722242575624,20922.931181509553
4.812406203101551,927.414086447357,926.2758013685033,0.17756195134421204,0.0,0.21574733745229815,0.1818718091813397,0.047432816506080604,1229.4401250408514,20934.01555315461
4.822411205602801,927.5271758131782,926.395823356944,0.17770542457762617,0.0,0.21579084512014501,0.1818275209477457,0.047431582377814564,1229.4084231977604,20945.09103196208
4.832416208104052,927.6395646255646,926.5150292826455,0.17784712228136787,0.0,0.21583379928211516,0.18178378420867763,0.047430345070234685,1229.3771035519912,20956.157620217433
4.842421210605303,927.7512699534791,926.6334356312136,0.1779871116780748,0.0,0.2158762208100331,0.1817405780974259,0.047429104585841604,1229.3461515717715,20967.215320533724
4.852426213106553,927.8623093362195,926.7510586653534,0.17812546306411547,0.0,0.2159181296951382,0.18169788262774644,0.047427862761348444,1229.3155520605621,20978.264135847385
4.862431215607804,927.9727014906647,926.8679145208914,0.178262254194353,0.0,0.21595954503677722,0.18165567870530896,0.04742662464013428,1229.2852882090172,20989.304069443082
4.872436218109055,928.0824628064319,926.9840194991247,0.17839754491221563,0.0,0.21600048511430506,0.18161394805572967,0.047425390527054405,1229.2553470809196,21000.335124933288
4.882441220610305,928.1916091937996,927.0993897330934,0.17853139154069372,0.0,0.21604096746343432,0.18157267314813014,0.047424160377791125,1229.2257165011936,21011.357306230584
4.8924462231115555,928.3001562413712,927.214041163692,0.17866384813067585,0.0,0.21608100891331614,0.18153183715805607,0.047422934149164944,1229.1963847859636,21022.37061753991
4.902451225612806,928.4081192223134,927.3279895353487,0.17879496657238045,0.0,0.2161206256211334,0.18149142393288464,0.04742171179912017,1229.1673407184583,21033.375063351294
4.912456228114057,928.5155131005307,927.4412503923022,0.178924796700976,0.0,0.2161598331048917,0.1814514179590346,0.04742049328671051,1229.1385735261726,21044.3706484327
4.9224612306153075,928.6223525367654,927.5538390754294,0.17905338639669546,0.0,0.21619864627450175,0.18141180433088452,0.04741927857208461,1229.11007285922,21055.35737782309
4.932466233116558,928.7286518946198,927.6657707195867,0.17918078167970589,0.0,0.2162370794612348,0.18137256872131868,0.04741806761647148,1229.0818287698182,21066.335256825565
4.942471235617809,928.8344252464849,927.7770602514178,0.179307026799942,0.0,0.2162751464456154,0.18133369735383517,0.04741686038216591,1229.0538316928642,21077.304291000717
4.9524762381190595,928.9396863793938,927.8877223876099,0.17943216432228248,0.0,0.21631286048386952,0.18129517697609918,0.04741565683251395,1229.0260724275188,21088.264486160104
4.96248124062031,929.0444488007751,927.9977716335453,0.17955623520718703,0.0,0.21635023433296377,0.18125699483490443,0.0474144569318983,1228.9985421197673,21099.21584835983
4.972486243121561,929.1487257441134,928.1072222823324,0.17967927888708013,0.0,0.21638728027432524,0.18121913865245493,0.047413260645723806,1228.9712322459063,21110.158383894322
4.982491245622811,929.2525301745227,928.2160884141806,0.17980133333874015,0.0,0.21642401013632212,0.18118159660388558,0.04741206794040289,1228.9441345968896,21121.09209929023
4.992496248124062,929.3558747942191,928.3243838960958,0.1799224351518586,0.0,0.21646043531555537,0.18114435729597148,0.04741087878334121,1228.9172412635053,21132.017001300406
5.002501250625312,929.4587720479009,928.432122381868,0.18004261959399184,0.0,0.21649656679703144,0.18110740974695674,0.04740969314292314,1228.8905446223303,21142.933096898116
5.012506253126563,929.5612341280357,928.5393173123317,0.18016192067212147,0.0,0.21653241517328273,0.1810707433674355,0.047408510988497625,1228.8640373224205,21153.84039327128
5.022511255627814,929.6632729800538,928.6459819158763,0.18028037119099172,0.0,0.21656799066248728,0.18103434794223286,0.04740733229036382,1228.8377122726977,21164.738897816904
5.032516258129064,929.7649003074463,928.7521292091847,0.18039800280840276,0.0,0.21660330312564502,0.1809982136132311,0.047406157019757034,1228.8115626299925,21175.62861813562
5.042521260630315,929.8661275767743,928.8577719981832,0.1805148460876272,0.0,0.2166383620828598,0.18096233086308777,0.04740498514883474,1228.785581787713,21186.50956202634
5.052526263131566,929.9669660225829,928.9629228791846,0.1806309305471157,0.0,0.21667317672878159,0.18092669049979596,0.04740381665066261,1228.759763365095,21197.381737481017
5.062531265632816,930.0674266522294,929.0675942402066,0.18074628470763507,0.0,0.21670775594725095,0.18089128364204063,0.04740265149920081,1228.7341011970134,21208.24515267958
5.072536268134067,930.1675202506203,929.171798262455,0.1808609361369973,0.0,0.2167421083251962,0.18085610170530292,0.04740148966929032,1228.708589324308,21219.099815984922
5.082541270635318,930.2672573848603,929.2755469219488,0.18097491149247397,0.0,0.21677624216581218,0.1808211363886829,0.04740033113663942,1228.6832219846149,21229.945735937996
5.092546273136568,930.3666484088166,929.378851991285,0.1810882365610858,0.0,0.2168101655010797,0.18078637966238154,0.04739917587781033,1228.6579936036555,21240.782921253107
5.102551275637818,930.465703467596,929.4817250415183,0.1812009362978103,0.0,0.21684388610363867,0.1807518237558289,0.04739802387020602,1228.6328987869745,21251.61138081321
5.11255627813907,930.5644325019407,929.5841774441561,0.18131303486190445,0.0,0.21687741149807602,0.18071746114639764,0.04739687509205709,1228.6079323120887,21262.431123665367
5.12256128064032,930.662845252538,929.6862203732483,0.18142455565136376,0.0,0.21691074897163568,0.1806832845486946,0.04739572952240892,1228.583089121034,21273.242159016314
5.13256628314157,930.7609512642521,929.7878648075668,0.18153552133568898,0.0,0.2169439055844027,0.18064928690437776,0.04739458714110887,1228.5583643132838,21284.04449622809
5.142571285642822,930.8587598902756,929.889121532867,0.18164595388702925,0.0,0.21697688817898375,0.18061546137247755,0.04739344792879373,1228.5337531390153,21294.83814481381
5.152576288144072,930.9562802962006,929.9900011442138,0.18175587460976153,0.0,0.21700970338970227,0.18058180132020293,0.04739231186687726,1228.509250992712,21305.6231144335
5.162581290645322,931.0535214640104,930.090514048374,0.1818653041686226,0.0,0.21704235765134375,0.18054830031419727,0.04739117893753799,1228.4848534070854,21316.399414890064
5.172586293146573,931.150492196002,930.1906704662626,0.1819742626154987,0.0,0.21707485720748515,0.18051495211221075,0.04739004912370712,1228.4605560472805,21327.16705612529
5.182591295647824,931.247201118626,930.2904804354348,0.18208276941487078,0.0,0.2171072081184061,0.18048175065519018,0.047388922409056615,1228.436354705376,21337.926048216013
5.192596298149074,931.343656686257,930.3899538126194,0.1821908434680573,0.0,0.21713941626862737,0.1804486900597421,0.04738779877798746,1228.4122452951426,21348.676401370318
5.202601300650325,931.4398671848887,930.4891002762864,0.1822985031362776,0.0,0.21717148737408293,0.18041576461096193,0.04738667821561813,1228.388223847057,21359.418125923847
5.212606303151576,931.5358407357623,930.5879293292443,0.18240576626264235,0.0,0.2172034269889588,0.1803829687555966,0.047385560707773215,1228.3642865035483,21370.151232336208
5.222611305652826,931.6315852989179,930.6864503012578,0.18251265019305804,0.0,0.21723524051219487,0.180350297095544,0.04738444624097219,1228.3404295144787,21380.875731187432
5.232616308154077,931.7271086766814,930.784672351687,0.1826191717961801,0.0,0.2172669331936912,0.18031774438164805,0.04738333480241844,1228.3166492328294,21391.59163317455
5.242621310655328,931.8224185170818,930.8826044721379,0.1827253474824117,0.0,0.21729851014021806,0.1802853055077897,0.047382226379988415,1228.292942110594,21402.298949108234
5.252626313156578,931.9175223172027,930.9802554891236,0.18283119322203353,0.0,0.2173299763210558,0.18025297550524882,0.0473811209622209,1228.2693046948589,21412.997689909513
5.262631315657829,932.0124274264648,931.0776340667296,0.18293672456246857,0.0,0.21736133657336676,0.18022074953733325,0.047380018538306645,1228.245733624071,21423.687866606542
5.272636318159079,932.1071410498483,931.1747487092819,0.18304195664477835,0.0,0.2173925956073277,0.1801886228942476,0.04737891909807795,1228.2222256244727,21434.369490331548
5.28264132066033,932.201670251048,931.2716077640129,0.18314690421939467,0.0,0.21742375801102518,0.1801565909881993,0.04737782263199864,1228.1987775066998,21445.042572317703
5.292646323161581,932.2960219555637,931.3682194237207,0.18325158166110828,0.0,0.2174548282551201,0.18012464934873512,0.047376729131154025,1228.1753861625414,21455.707123896176
5.302651325662831,932.3902029537362,931.464591729424,0.18335600298343074,0.0,0.21748581069731765,0.1800927936182727,0.047375638587241205,1228.1520485618369,21466.36315649322
5.312656328164082,932.4842199037151,931.5607325730039,0.18346018185227048,0.0,0.21751670958662386,0.18006101954784473,0.04737455099255941,1228.1287617495184,21477.010681627336
5.3226613306653325,932.578079334373,931.6566496998336,0.18356413159902799,0.0,0.21754752906742217,0.1800293229930241,0.047373466340000635,1228.1055228427797,21487.649710906484
5.332666333166583,932.6717876481541,931.7523507113922,0.18366786523306872,0.0,0.21757827318335618,0.17999769991004191,0.04737238462304034,1228.0823290283815,21498.280256025413
5.342671335667834,932.7653511238716,931.847843067862,0.1837713954536827,0.0,0.21760894588105326,0.1799661463520653,0.047371305835728426,1228.0591775600656,21508.902328762968
5.3526763381690845,932.8587759194438,931.9431340907054,0.18387473466150023,0.0,0.21763955101367907,0.17993465846564363,0.04737022997268027,1228.0360657560868,21519.51594097955
5.362681340670335,932.9520680745795,932.038230965224,0.1839778949694334,0.0,0.2176700923443447,0.17990323248730314,0.047369157029068035,1228.0129909968489,21530.121104614587
5.372686343171585,933.0452335133994,932.1331407430889,0.18408088821308788,0.0,0.21770057354934919,0.17987186474030484,0.04736808700061208,1227.9899507226532,21540.717831684087
5.3826913456728365,933.1382780470168,932.2278703448555,0.18418372596081423,0.0,0.21773099822131003,0.17984055163151544,0.047367019883572586,1227.9669424315266,21551.30613427824
5.392696348174087,933.2312073760518,932.3224265624452,0.184286419523237,0.0,0.21776136987213132,0.1798092896484402,0.047365955674741285,1227.943963677162,21561.88602455905
5.402701350675337,933.3240270931021,932.4168160616045,0.18438897996243353,0.0,0.21779169193586329,0.17977807535636448,0.047364894371433354,1227.9210120669336,21572.457514758116
5.412706353176588,933.4167426851585,932.5110453843364,0.18449141810070835,0.0,0.21782196777143553,0.17974690539562135,0.04736383597147959,1227.8980852600023,21583.020617174356
5.422711355677839,933.5093595359732,932.6051209513034,0.18459374452900473,0.0,0.21785220066527822,0.17971577647897172,0.047362780473218576,1227.875180965495,21593.57534417186
5.432716358179089,933.6018829283762,932.6990490641998,0.18469596961495804,0.0,0.2178823938338314,0.17968468538909574,0.04736172787548911,1227.8522969407654,21604.12170817774
5.44272136068034,933.6943180465427,932.7928359080961,0.1847981035106101,0.0,0.21791255042594884,0.17965362897618992,0.04736067817762276,1227.829430989727,21614.659721680116
5.452726363181591,933.7866699782143,932.8864875537492,0.1849001561598079,0.0,0.2179426735252044,0.17962260415566206,0.04735963137943657,1227.806580961254,21625.18939722605
5.462731365682841,933.878943716875,932.9800099598874,0.18500213730531848,0.0,0.21797276615210925,0.17959160790591452,0.047358587481225886,1227.783744747643,21635.71074741963
5.4727363681840915,933.9711441638765,933.0734089754571,0.18510405649562212,0.0,0.2180028312662296,0.17956063726622767,0.047357546483757444,1227.760920283144,21646.223784919992
5.482741370685343,934.0632761305224,933.1666903418417,0.1852059230914435,0.0,0.21803287176822309,0.17952968933472446,0.04735650838826243,1227.7381055425524,21656.72852243952
5.492746373186593,934.1553443401049,933.2598596950452,0.1853077462720155,0.0,0.21806289050179134,0.17949876126641853,0.04735547319642981,1227.7152985398511,21667.224972741948
5.5027513756878434,934.2473534299014,933.3529225678463,0.18540953504110563,0.0,0.2180928902555594,0.1794678502713359,0.047354440910399816,1227.6924973269092,21677.713148640643
5.512756378189095,934.3393079531256,933.4458843919174,0.18551129823278556,0.0,0.21812287376487458,0.17943695361271664,0.04735341153275745,1227.6696999922378,21688.19306299685
5.522761380690345,934.4312123808372,933.5387504999094,0.1856130445169731,0.0,0.21815284371353538,0.17940606860528718,0.04735238506652627,1227.6469046597895,21698.664728717962
5.532766383191595,934.5230711038105,933.6315261275054,0.1857147824047604,0.0,0.21818280273545293,0.17937519261359944,0.04735136151516218,1227.6241094878071,21709.128158755953
5.542771385692847,934.6148884343643,933.7242164154418,0.1858165202535415,0.0,0.21821275341625063,0.179344323050432,0.04735034088254748,1227.601312667717,21719.583366105697
5.552776388194097,934.7066686081473,933.816826411492,0.18591826627191066,0.0,0.21824269829479237,0.1793134573752628,0.047349323172984924,1227.5785124230697,21730.030363803417
5.562781390695347,934.7984157858936,933.9093610724228,0.18602002852442287,0.0,0.21827263986466755,0.17928259309278477,0.04734830839119203,1227.555707008511,21740.46916492519
5.572786393196598,934.8901340551282,934.0018252659116,0.1861218149361066,0.0,0.21830258057559945,0.17925172775149834,0.04734729654229541,1227.5328947088078,21750.899782585424
5.582791395697849,934.9818274318443,934.0942237724339,0.18622363329684746,0.0,0.21833252283481297,0.17922085894234435,0.04734628763182523,1227.510073837899,21761.322229935406
5.592796398199099,935.0734998621405,934.1865612871179,0.18632549126559386,0.0,0.21836246900834722,0.17918998429739208,0.047345281665709976,1227.4872427379883,21771.736520161892
5.60280140070035,935.1651552238221,934.2788424215647,0.1864273963744013,0.0,0.21839242142231785,0.17915910148857783,0.04734427865027104,1227.46439977867,21782.142666485754
5.612806403201601,935.2567973279665,934.3710717056371,0.18652935603231813,0.0,0.21842238236412995,0.17912820822649275,0.047343278592217666,1227.4415433560887,21792.540682160587
5.622811405702851,935.3484299204575,934.4632535892155,0.1866313775291485,0.0,0.21845235408365282,0.17909730225920859,0.04734228149864191,1227.418671892127,21802.93058047142
5.632816408204102,935.4400566834796,934.5553924439222,0.1867334680390386,0.0,0.21848233879433937,0.17906638137115888,0.047341287377013715,1227.3957838336294,21813.31237473345
5.642821410705353,935.5316812369837,934.6474925648113,0.18683563462395392,0.0,0.2185123386743122,0.1790354433820538,0.04734029623517616,1227.372877651653,21823.686078290782
5.652826413206603,935.6233071401207,934.7395581720324,0.18693788423703941,0.0,0.2185423558674125,0.1790044861458317,0.04733930808134071,1227.3499518407389,21834.051704515212
5.662831415707854,935.7149378926382,934.8315934124557,0.18704022372581575,0.0,0.21857239248419852,0.1789735075496614,0.047338322924082694,1227.3270049182238,21844.409266805065
5.672836418209104,935.806576936253,934.9236023612738,0.1871426598353098,0.0,0.218602450602923,0.1789425055129652,0.047337340772336804,1227.3040354235618,21854.758778584015
5.682841420710355,935.8982276559859,935.0155890235656,0.1872451992110247,0.0,0.2186325322704611,0.17891147798649162,0.04733636163539275,1227.2810419176847,21865.100253299985
5.692846423211606,935.989893381472,935.1075573358353,0.18734784840183943,0.0,0.21866263950321602,0.17888042295141054,0.04733538552289097,1227.258022982373,21875.433704424035
5.702851425712856,936.0815773882388,935.1995111675196,0.18745061386278164,0.0,0.21869277428798525,0.17884933841844716,0.04733441244481847,1227.2349772196594,21885.759145449312
5.712856428214107,936.1732828989553,935.2914543224634,0.18755350195770934,0.0,0.21872293858279848,0.17881822242704493,0.04733344241150477,1227.2119032512473,21896.076589890003
5.722861430715358,936.2650130846542,935.3833905403685,0.18765651896188967,0.0,0.21875313431772328,0.17878707304456043,0.047332475433617904,1227.188799717955,21906.38605128033
5.732866433216608,936.3567710659272,935.4753234982142,0.1877596710645135,0.0,0.21878336339565094,0.17875588836547784,0.04733151152216059,1227.165665279171,21916.68754317355
5.742871435717859,936.4485599140899,935.5672568116457,0.18786296437107583,0.0,0.21881362769304036,0.17872466651066574,0.0473305506884664,1227.1424986123418,21926.981079141005
5.7528764382191095,936.5403826523245,935.6591940363397,0.18796640490572353,0.0,0.21884392906065164,0.178693405626644,0.047329592944196065,1227.1192984124625,21937.266672771195
5.76288144072036,936.6322422567931,935.7511386693366,0.18806999861347956,0.0,0.2188742693242416,0.1786621038848887,0.04732863830133393,1227.096063391598,21947.54433766885
5.77288644322161,936.7241416577294,935.8430941503508,0.1881737513624272,0.0,0.21890465028524625,0.17863075948115023,0.04732768677218435,1227.0727922784095,21957.81408745406
5.7828914457228615,936.8160837405004,935.9350638630497,0.18827766894577866,0.0,0.21893507372142765,0.17859937063480696,0.04732673836936831,1227.0494838177092,21968.0759357614
5.792896448224112,936.9080713466487,936.0270511363096,0.18838175708391097,0.0,0.2189655413875102,0.17856793558822898,0.047325793105820045,1227.026136770019,21978.329896239076
5.802901450725362,937.0001072749096,936.1190592454439,0.18848602142631474,0.0,0.2189960550157902,0.17853645260616974,0.04732485099478382,1227.002749911151,21988.57598254816
5.8129064532266135,937.0921942822022,936.211091413405,0.18859046755346934,0.0,0.219026616316722,0.1785049199751796,0.047323912049810665,1226.9793220318008,21998.814208361702
5.822911455727864,937.184335084603,936.303150811964,0.18869510097868375,0.0,0.2190572269794936,0.17847333600303109,0.04732297628475535,1226.9558519371506,22009.044587364056
5.832916458229114,937.2765323582926,936.3952405628618,0.18879992714983937,0.0,0.2190878886725719,0.17844169901817405,0.04732204371377325,1226.9323384464935,22019.26713325004
5.8429214607303654,937.3687887404824,936.4873637389387,0.18890495145110056,0.0,0.21911860304423744,0.17841000736920104,0.04732111435131747,1226.9087803928624,22029.481859724252
5.852926463231616,937.4611068303227,936.5795233652395,0.18901017920457658,0.0,0.21914937172310428,0.17837825942432814,0.04732018821213592,1226.8851766226717,22039.68878050031
5.862931465732866,937.5534891897837,936.6717224200942,0.1891156156718903,0.0,0.21918019631861074,0.17834645357090453,0.04731926531126848,1226.861525995379,22049.887909300207
5.8729364682341165,937.6459383445227,936.7639638361755,0.1892212660557345,0.0,0.2192110784215061,0.178314588214926,0.04731834566404434,1226.8378273831474,22060.079259853585
5.882941470735368,937.738456784727,936.8562505015356,0.1893271355013597,0.0,0.21924201960431616,0.17828266178056992,0.04731742928607917,1226.8140796705263,22070.262845897094
5.892946473236618,937.83104696594,936.9485852606181,0.1894332290980189,0.0,0.21927302142179517,0.1782506727097437,0.04731651619327269,1226.7902817541362,22080.43868117376
5.9029514757378685,937.9237113098671,937.0409709152507,0.1895395518803691,0.0,0.21930408541136423,0.17821861946164663,0.047315606401805974,1226.7664325423702,22090.606779432324
5.91295647823912,938.0164522051654,937.1334102256146,0.18964610882983063,0.0,0.2193352130935367,0.17818650051234478,0.04731469992813906,1226.7425309550954,22100.767154426685
5.92296148074037,938.1092720082074,937.2259059111923,0.18975290487587357,0.0,0.21936640597232074,0.1781543143543689,0.047313796789008496,1226.7185759233787,22110.919819915234
5.9329664832416205,938.2021730438398,937.3184606516977,0.18985994489731842,0.0,0.21939766553562615,0.17812205949630783,0.04731289700142499,1226.6945663892054,22121.064789660366
5.942971485742872,938.2951576061124,937.4110770879827,0.18996723372354757,0.0,0.2194289932556438,0.17808973446242962,0.0473120005826711,1226.670501305215,22131.202077427835
5.952976488244122,938.3882279590011,937.5037578229268,0.1900747761357223,0.0,0.21946039058922592,0.1780573377923009,0.047311107550299034,1226.6463796344417,22141.331696986264
5.962981490745372,938.4813863371023,937.596505422303,0.1901825768678992,0.0,0.21949185897823614,0.17802486804043804,0.04731021792212843,1226.6222003500704,22151.453662106593
5.972986493246623,938.574634946323,937.6893224156315,0.19029064060819137,0.0,0.21952339984991234,0.17799232377594384,0.04730933171624422,1226.5979624351876,22161.567986561553
5.982991495747874,938.667975964548,937.7822112970069,0.19039897199983763,0.0,0.2195550146172017,0.17795970358217303,0.04730844895099464,1226.5736648825493,22171.674684125188
5.992996498249124,938.7614115422938,937.8751745259138,0.19050757564226437,0.0,0.21958670467909278,0.17792700605640063,0.047307569644989084,1226.5493066943538,22181.773768572344
6.003001500750375,938.8549438033466,937.9682145280186,0.19061645609210062,0.0,0.21961847142093338,0.17789422980950406,0.04730669381709625,1226.5248868820186,22191.865253678206
6.013006503251626,938.9485748453876,938.0613336959497,0.19072561786419207,0.0,0.21965031621474784,0.17786137346564626,0.04730582148644218,1226.500404465965,22201.949153217825
6.023011505752876,939.0423067406012,938.1545343900549,0.19083506543254067,0.0,0.2196822404195313,0.1778284356619817,0.0473049526724084,1226.4758584754134,22212.025480965673
6.033016508254127,939.1361415362716,938.2478189391458,0.19094480323126295,0.0,0.21971424538154943,0.17779541504835675,0.04730408739463007,1226.4512479481766,22222.094250695216
6.043021510755377,939.2300812553648,938.3411896412244,0.1910548356554955,0.0,0.21974633243462205,0.17776231028702646,0.04730322567299429,1226.4265719304642,22232.15547617848
6.053026513256628,939.3241278970959,938.4346487641931,0.19116516706227452,0.0,0.21977850290039835,0.17772912005237942,0.047302367527638306,1226.4018294766925,22242.209171185623
6.063031515757879,939.4182834374876,938.52819854655,0.19127580177140732,0.0,0.21981075808862993,0.17769584303066513,0.047301512978947864,1226.377019649296,22252.25534948457
6.073036518259129,939.5125498299078,938.6218411980664,0.19138674406628536,0.0,0.21984309929742496,0.1776624779197398,0.047300662047555564,1226.3521415185535,22262.294024840583
6.08304152076038,939.6069290056057,938.715578900453,0.19149799819472613,0.0,0.2198755278135119,0.17762902342880296,0.04729981475433928,1226.327194162403,22272.325211015912
6.093046523261631,939.7014228742266,938.8094138080078,0.19160956836974694,0.0,0.21990804491248184,0.1775954782781556,0.04729897112042061,1226.3021766662778,22282.348921769397
6.103051525762881,939.7960333243212,938.9033480482525,0.1917214587703477,0.0,0.21994065185903328,0.1775618411989549,0.047298131167163374,1226.277088122935,22292.365170856156
6.113056528264132,939.8907622238369,938.9973837225506,0.19183367354223968,0.0,0.2199733499072004,0.17752811093298687,0.04729729491617208,1226.2519276323003,22302.373972027177
6.123061530765383,939.985611420604,939.0915229067158,0.19194621679859086,0.0,0.2200061403005865,0.17749428623243269,0.047296462389290625,1226.2266943013044,22312.375339029033
6.133066533266633,940.080582742809,939.1857676516057,0.19205909262073673,0.0,0.22003902427258615,0.17746036585964675,0.04729563360860077,1226.201387243732,22322.369285603516
6.143071535767883,940.1756779994549,939.2801199837004,0.192172305058866,0.0,0.22007200304660024,0.177426348586942,0.04729480859642088,1226.1760055800712,22332.355825487346
6.153076538269135,940.2708989808132,939.3745819056708,0.19228585813269186,0.0,0.22010507783624578,0.1773922331963801,0.04729398737530454,1226.1505484373708,22342.334972411853
6.163081540770385,940.3662474588668,939.4691553969326,0.19239975583212565,0.0,0.22013824984556696,0.1773580184795605,0.04729316996803931,1226.1250149490938,22352.30674010266
6.173086543271635,940.4617251877389,939.5638424141879,0.19251400211789294,0.0,0.22017152026922782,0.17732370323742816,0.04729235639764547,1226.0994042549833,22362.271142279405
6.1830915457728866,940.5573339041175,939.6586448919558,0.19262860092218206,0.0,0.2202048902927154,0.17728928628007024,0.047291546687374814,1226.0737155009244,22372.22819265548
6.193096548274137,940.6530753276662,939.7535647430906,0.19274355614924243,0.0,0.22023836109252684,0.17725476642652938,0.04729074086070941,1226.0479478388127,22382.177904937704
6.203101550775387,940.7489511614267,939.8486038592881,0.19285887167597632,0.0,0.2202719338363547,0.17722014250461832,0.047289938941360556,1226.022100426429,22392.12029282611
6.2131065532766385,940.8449630922142,939.9437641115812,0.1929745513525271,0.0,0.22030560968327106,0.17718541335073631,0.047289140953267535,1225.9961724273098,22402.05537001364
6.223111555777889,940.9411127910034,940.0390473508246,0.19309059900285,0.0,0.2203393897839059,0.1771505778096902,0.047288346920596636,1225.9701630106258,22411.983150185948
6.233116558279139,941.0374019133038,940.1344554081684,0.1932070184252579,0.0,0.2203732752806182,0.17711563473452413,0.04728755686774001,1225.9440713510621,22421.903647021092
6.24312156078039,941.1338320995286,940.2299900955202,0.19332381339296575,0.0,0.2204072673076662,0.177080582986349,0.04728677081931469,1225.917896628703,22431.816874189364
6.253126563281641,941.2304049753557,940.3256532060002,0.19344098765462459,0.0,0.22044136699137432,0.17704542143417573,0.04728598880016156,1225.8916380289143,22441.722845353008
6.263131565782891,941.3271221520799,940.4214465143823,0.19355854493483282,0.0,0.2204755754502933,0.17701014895475534,0.04728521083534442,1225.8652947422347,22451.621574166023
6.273136568284142,941.4239852269585,940.5173717775282,0.19367648893465497,0.0,0.22050989379536243,0.17697476443241672,0.04728443695014895,1225.838865964262,22461.513074273964
6.283141570785393,941.5209957835477,940.6134307348113,0.19379482333210804,0.0,0.22054432313006161,0.17693926675891458,0.04728366717008187,1225.8123508955493,22471.397359313698
6.293146573286643,941.6181553920312,940.7096251085295,0.19391355178263556,0.0,0.22057886455055986,0.17690365483328135,0.04728290152086999,1225.7857487415024,22481.27444291322
6.3031515757878935,941.7154656095478,940.8059566043131,0.19403267791961967,0.0,0.2206135191458752,0.17686792756166703,0.04728214002845941,1225.7590587122684,22491.144338691473
6.313156578289145,941.8129279805012,940.9024269115184,0.19415220535480165,0.0,0.22064828799800634,0.17683208385720772,0.04728138271901454,1225.7322800226457,22501.00706025814
6.323161580790395,941.910544036874,940.9990377036174,0.1942721376787725,0.0,0.22068317218208608,0.17679612263987232,0.04728062961891737,1225.7054118919775,22510.86262121346
6.3331665832916455,942.0083152985284,941.0957906385772,0.19439247846140803,0.0,0.2207181727665173,0.17676004283632674,0.04727988075476665,1225.6784535440581,22520.711035148062
6.343171585792896,942.106243273503,941.1926873592305,0.19451323125231154,0.0,0.22075329081311146,0.17672384337979516,0.04727913615337708,1225.6514042070362,22530.5523156428
6.353176588294147,942.2043294583008,941.2897294936379,0.19463439958122888,0.0,0.22078852737721827,0.1766875232099307,0.04727839584177859,1225.6242631133273,22540.386476268566
6.3631815907953975,942.3025753381756,941.386918655445,0.19475598695849689,0.0,0.220823883507866,0.17665108127267518,0.04727765984721551,1225.5970294995147,22550.21353058616
6.373186593296648,942.4009823874095,941.4842564442298,0.19487799687544222,0.0,0.22085936024788588,0.17661451652013435,0.047276928197145955,1225.5697026062644,22560.03349214609
6.383191595797899,942.4995520695825,941.5817444458407,0.19500043280478233,0.0,0.22089495863403785,0.17657782791045298,0.04727620091924105,1225.5422816782377,22569.846374488494
6.393196598299149,942.5982858378414,941.6793842327321,0.19512329820103894,0.0,0.2209306796971393,0.17654101440768533,0.047275478041384274,1225.5147659640033,22579.65219114292
6.4032016008004,942.6971851351605,941.777177364289,0.19524659650092843,0.0,0.22096652446218745,0.17650407498167342,0.04727475959167079,1225.4871547159512,22589.450955628232
6.413206603301651,942.7962513945974,941.8751253871465,0.19537033112374652,0.0,0.22100249394847934,0.17646700860792683,0.047274045598406776,1225.4594471902108,22599.24268145249
6.423211605802901,942.895486039542,941.973229835501,0.19549450547174355,0.0,0.22103858916972904,0.1764298142675055,0.047273336090108864,1225.431642646568,22609.027382112756
6.433216608304152,942.9948904839641,942.0714922314181,0.19561912293051115,0.0,0.22107481113418867,0.176392490946899,0.047272631095503406,1225.4037403483849,22618.805071095052
6.443221610805402,943.094466132653,942.1699140851292,0.1957441868693404,0.0,0.22111116084475987,0.17635503763791463,0.047271930643526014,1225.3757395625191,22628.575761874177
6.453226613306653,943.1942143814524,942.2684968953267,0.19586970064158354,0.0,0.2211476392991072,0.17631745333756457,0.047271234763320874,1225.347639559247,22638.33946791363
6.463231615807904,943.2941366174908,942.3672421494487,0.19599566758500345,0.0,0.22118424748976698,0.17627973704795677,0.0472705434842402,1225.3194396121883,22648.096202665463
6.473236618309154,943.3942342194113,942.4661513239625,0.19612209102214873,0.0,0.2212209864042645,0.1762418877761778,0.04726985683584376,1225.2911389982241,22657.84597957023
6.483241620810405,943.4945085575903,942.5652258846385,0.1962489742606761,0.0,0.22125785702521464,0.1762039045341923,0.047269174847898214,1225.2627369974284,22667.588812056827
6.493246623311656,943.5949609943572,942.6644672868201,0.1963763205937022,0.0,0.2212948603304318,0.17616578633873298,0.047268497550376674,1225.2342328929915,22677.324713542414
6.503251625812906,943.695592884207,942.7638769756877,0.19650413330013874,0.0,0.2213319972930343,0.17612753221119645,0.047267824973458196,1225.2056259711471,22687.05369743235
6.513256628314157,943.7964055740101,942.8634563865178,0.1966324156450197,0.0,0.22136926888154665,0.1760891411775407,0.04726715714752724,1225.1769155211011,22696.77577712007
6.523261630815408,943.8974004032175,942.9632069449358,0.19676117087983086,0.0,0.2214066760600023,0.17605061226818247,0.0472664941031732,1225.1481008349629,22706.490965987
6.533266633316658,943.9985787040631,943.0631300671663,0.19689040224283633,0.0,0.22144421978804557,0.17601194451789537,0.047265835871189946,1225.119181207672,22716.199277402473
6.543271635817908,944.0999418017614,943.1632271602751,0.19702011295939412,0.0,0.22148190102103002,0.17597313696571135,0.04726518248257538,1225.0901559369304,22725.900724723684
6.55327663831916,944.2014910147009,943.2634996224082,0.19715030624226487,0.0,0.2215197207101149,0.17593418865482455,0.047264533968530933,1225.061024323138,22735.595321295583
6.56328164082041,944.3032276546344,943.3639488430254,0.19728098529192478,0.0,0.22155767980236257,0.17589509863249364,0.04726389036046117,1225.031785669321,22745.283080450787
6.57328664332166,944.4051530268687,943.4645762031317,0.1974121532968771,0.0,0.22159577924083565,0.17585586594994454,0.04726325168997335,1225.0024392810685,22754.964015509562
6.583291645822912,944.507268430446,943.5653830755006,0.19754381343395602,0.0,0.22163401996469193,0.17581648966227595,0.04726261798887698,1224.972984466464,22764.638139779727
6.593296648324162,944.6095751583246,943.6663708248949,0.19767596886861535,0.0,0.22167240290927426,0.17577696882836893,0.04726198928918348,1224.943420536024,22774.305466556576
6.603301650825412,944.7120744975563,943.7675408082837,0.19780862275522945,0.0,0.22171092900620432,0.17573730251079356,0.047261365623105726,1224.9137468026333,22783.96600912286
6.613306653326664,944.8147677294626,943.8688943750553,0.19794177823739703,0.0,0.22174959918347736,0.1756974897757138,0.04726074702305767,1224.8839625814792,22793.61978074871
6.623311655827914,944.9176561298021,943.9704328672235,0.19807543844820702,0.0,0.2217884143655452,0.17565752969280493,0.04726013352165395,1224.8540671899925,22803.26679469157
6.633316658329164,945.020740968941,944.0721576196344,0.19820960651054403,0.0,0.22182737547341103,0.17561742133515812,0.04725952515170958,1224.8240599477842,22812.907064196184
6.643321660830415,945.1240235120193,944.1740699601655,0.19834428553736863,0.0,0.2218664834247171,0.17557716377919322,0.04725892194623949,1224.7939401765818,22822.54060249451
6.653326663331666,945.2275050191103,944.2761712099233,0.19847947863198637,0.0,0.22190573913382844,0.17553675610457484,0.047258323938458247,1224.7637072001733,22832.16742280571
6.663331665832916,945.331186745382,944.3784626834357,0.1986151888883297,0.0,0.22194514351192066,0.1754961973941245,0.04725773116177966,1224.7333603443458,22841.787538336095
6.673336668334167,945.4350699412555,944.4809456888437,0.19875141939124802,0.0,0.22198469746707003,0.17545548673373043,0.04725714364981649,1224.7028989368214,22851.40096227907
6.683341670835418,945.539155852556,944.5836215280846,0.19888817321674368,0.0,0.2220244019043276,0.1754146232122738,0.047256561436380046,1224.6723223072083,22861.007707815137
6.693346673336668,945.6434457206669,944.6864914970772,0.19902545343226943,0.0,0.22206425772581112,0.17537360592153614,0.047255984555479906,1224.6416297869346,22870.60778811183
6.703351675837919,945.7479407826808,944.7895568859021,0.19916326309699553,0.0,0.22210426583078866,0.17533243395611622,0.0472554130413236,1224.6108207091913,22880.201216323705
6.71335667833917,945.8526422715452,944.8928189789776,0.19930160526206672,0.0,0.22214442711575844,0.1752911064133499,0.047254846928316246,1224.579894408877,22889.788005592298
6.72336168084042,945.9575514162048,944.9962790552312,0.19944048297084657,0.0,0.22218474247452497,0.17524962239323413,0.04725428625106028,1224.5488502225446,22899.368169046098
6.7333666833416705,946.0626694417466,945.0999383882721,0.19957989925919206,0.0,0.22222521279828436,0.17520798099834134,0.04725373104435513,1224.517687488342,22908.941719800558
6.743371685842921,946.1679975695414,945.2037982465596,0.1997198571557189,0.0,0.22226583897570712,0.17516618133373688,0.04725318134319694,1224.4864055459539,22918.50867095802
6.753376688344172,946.2735370173795,945.3078598935656,0.1998603596820432,0.0,0.22230662189301312,0.1751242225069037,0.04725263718277822,1224.4550037365511,22928.069035607754
6.7633816908454225,946.3792889996072,945.4121245879375,0.2000014098530287,0.0,0.2223475624340487,0.17508210362766538,0.04725209859848765,1224.4234814027354,22937.622826825893
6.773386693346673,946.4852547272604,945.5165935836568,0.20014301067703893,0.0,0.2223886614803651,0.17503982380810787,0.04725156562590965,1224.3918378884869,22947.170057675467
6.783391695847924,946.5914354081981,945.6212681301963,0.20028516515619113,0.0,0.2224299199112972,0.17499738216249994,0.047251038300824236,1224.360072539106,22956.71074120634
6.7933966983491745,946.6978322472306,945.7261494726739,0.20042787628659423,0.0,0.2224713386040381,0.17495477780721955,0.04725051665920666,1224.3281847011658,22966.244890455255
6.803401700850425,946.8044464462503,945.8312388520044,0.2005711470586047,0.0,0.22251291843371798,0.17491200986067404,0.04725000073722716,1224.2961737224534,22975.772518445785
6.813406703351676,946.9112792043541,945.9365375050471,0.20071498045704309,0.0,0.222554660273472,0.17486907744323263,0.04724949057125066,1224.2640389519242,22985.293638188345
6.8234117058529264,947.0183317179718,946.0420466647539,0.20085937946145815,0.0,0.22259656499452227,0.17482597967714447,0.047248986197836525,1224.2317797396463,22994.808262680202
6.833416708354177,947.125605180985,946.1477675603129,0.2010043470463403,0.0,0.22263863346624405,0.17478271568647177,0.04724848765373829,1224.1993954367508,23004.316404905447
