z,T,t,fs,fl,x,y,w,rhob,p
0.0,633.6715390687374,505.0,0.0,0.0,0.1634340774224834,0.23417846445788146,0.04771267200950706,1268.0,14330.0
0.010005002501250625,641.897965255633,517.608679480668,2.7131676143600607e-05,0.0,0.16344249728880825,0.2341700445913748,0.04771267200921966,1267.9941330461932,14337.514008538661
0.02001000500250125,649.8262110062343,529.7423972602971,5.82345825476779e-05,0.0,0.16345214956040088,0.23416039231937907,0.04771267200858239,1267.9874073533624,14345.176419554648
0.030015007503751877,657.469673955807,541.423838102871,9.348182687881792e-05,0.0,0.16346308795806286,0.23414945392087858,0.047712672007256866,1267.9797854885207,14352.982248761029
0.0400200100050025,664.8409609821481,552.6742322971145,0.00013302166004409188,0.0,0.1634753584884902,0.23413718338880363,0.047712672004652235,1267.971235393568,14360.92665896182
0.05002501250625312,671.9519490330644,563.5134789441553,0.00017697869764294607,0.0,0.16348899982320964,0.2341235420510068,0.04771267199978732,1267.9617301210876,14369.004957012416
0.060030015007503754,678.8138398335732,573.9602555534068,0.0002254553566374079,0.0,0.16350404374426084,0.2341084981244624,0.04771267199110339,1267.9512475235813,14377.212590693462
0.07003501750875438,685.4372104159154,584.0321179321171,0.00027853345625014267,0.0,0.1635205156407958,0.23409202621851358,0.04771267197622147,1267.939769907154,14385.545145256034
0.080040020010005,691.8320586796293,593.7455893189165,0.0003362758642782568,0.0,0.16353843501971896,0.23407410682404065,0.04771267195163942,1267.9272836753519,14393.998339945982
0.09004502251125562,698.0078445556669,603.1162401554272,0.0003987281370000087,0.0,0.1635578160142834,0.23405472580463285,0.0477126719123657,1267.9137789743456,14402.568024550903
0.10005002501250625,703.973527247342,612.1587596333113,0.0004659201169996304,0.0,0.16357866787957115,0.23403387390083583,0.04771267185148816,1267.899249347182,14411.2501760116
0.11005502751375687,709.7375998945207,620.8870216011471,0.0005378674916860114,0.0,0.16360099547572504,0.2340115462466107,0.047712671759685944,1267.8836913965001,14420.040894861342
0.12006003001500751,715.3081211410347,629.3141440900823,0.0006145732656402032,0.0,0.16362479972439464,0.23398774191254731,0.04771267162469072,1267.867104465857,14428.936401711728
0.13006503251625812,720.6927438101104,637.4525429915053,0.0006960291345345212,0.0,0.163650078034599,0.23396246347963362,0.04771267143070506,1267.8494903423114,14437.9330338409
0.14007003501750875,725.8987409885488,645.3139805583178,0.0007822167586556878,0.0,0.16367682469740366,0.23393571664418944,0.04771267115778695,1267.8308529806989,14447.027241904398
0.15007503751875936,730.9330304477961,652.9096104347736,0.0008731089518505003,0.0,0.1637050312543408,0.23390750984904965,0.04771267078122306,1267.8111982461903,14456.215586561924
0.16008004002001,735.8021971091705,660.2500187955544,0.0009686707713862599,0.0,0.16373468683508216,0.23387785394549665,0.04771267027090461,1267.7905336782796,14465.494735161297
0.17008504252126064,740.5125135400059,667.3452616616406,0.0010688605081772653,0.0,0.1637657784642053,0.2338467618861082,0.047712669590717564,1267.768868276321,14474.861458556212
0.18009004502251125,745.0699586927062,674.20489883482,0.0011736305851571583,0.0,0.16379829133947763,0.23381424844610457,0.047712668697959065,1267.746212304944,14484.312628062089
0.19009504752376188,749.480235519075,680.8380255773657,0.0012829283780217075,0.0,0.16383220908609675,0.23378032996877246,0.047712667542807764,1267.7225771162875,14493.845212382439
0.2001000500250125,753.7487873401451,687.2533018778175,0.0013966969566896468,0.0,0.16386751398638577,0.2337450241354773,0.04771266606786026,1267.6979749894103,14503.456274580458
0.21010505252626313,757.880812833911,693.4589791203178,0.0015148757494895342,0.0,0.1639041871855695,0.23370834975963786,0.04771266420773808,1267.6724189864515,14513.142969192917
0.22011005502751374,761.8812798040326,699.4629244770161,0.0016374011387552487,0.0,0.16394220887633407,0.23367032660196793,0.04771266188877325,1267.6459228236681,14522.902539478273
0.23011505752876438,765.75493815206,705.2726437598453,0.0017642069974978334,0.0,0.16398155846518783,0.23363097520397935,0.047712659028793354,1267.618500755265,14532.732314671317
0.24012006003001501,769.5063320567367,710.895302760803,0.0018952251696095401,0.0,0.16402221472139172,0.23359031673898267,0.047712655537012115,1267.590167469497,14542.62970726456
0.25012506253126565,773.1398111577389,716.3377467724351,0.0020303858959908857,0.0,0.16406415590919254,0.23354837287984576,0.04771265131401717,1267.560937996516,14552.592210428798
0.26013006503251623,776.6595408764678,721.6065185353771,0.0021696181935596274,0.0,0.16410735990552103,0.2335051656813506,0.04771264625185609,1267.530827626461,14562.617395555984
0.27013506753376687,780.0695121481488,726.7078750833596,0.0023128501929769413,0.0,0.16415180430497261,0.23346071747533476,0.04771264023423045,1267.4998518365355,14572.702909833237
0.2801400700350175,783.373550651077,731.6478036395263,0.0024600094379340614,0.0,0.1641974665129541,0.23341505077773578,0.04771263313679704,1267.4680262264542,14582.846473825422
0.29014507253626814,786.575325303543,736.4320362045103,0.002611023148570807,0.0,0.16424432382777576,0.23336818820674507,0.04771262482755717,1267.4353664616951,14593.04587918795
0.3001500750375187,789.6783561385922,741.0660630333243,0.0027658184538822015,0.0,0.16429235351319357,0.23332015241056486,0.047712615167329935,1267.4018882235043,14603.298986487398
0.31015507753876936,792.6860217273128,745.5551452908244,0.0029243225964793894,0.0,0.16434153286244485,0.23327096600372488,0.04771260401030857,1267.367607164923,14613.603723069886
0.32016008004002,795.6015662864352,749.9043271135682,0.0030864631115271094,0.0,0.16439183925433776,0.2332206515113935,0.04771259120469449,1267.332538872443,14623.958080923288
0.33016508254127064,798.4281062387839,754.1184467128999,0.003252167982714301,0.0,0.1644432502022613,0.2331692313208036,0.04771257659338546,1267.2966988326552,14634.360114657533
0.3401700850425213,801.1686363172663,758.2021466767519,0.003421365778345345,0.0,0.1644957433970673,0.2331167276388355,0.04771256001471161,1267.260102403229,14644.807939578603
0.35017508754377186,803.8260353123981,762.159883639196,0.0035939857695466626,0.0,0.1645492967444385,0.23306316245514114,0.047712541303212716,1267.2227647877726,14655.299729820546
0.3601800900450225,806.4030716243564,765.9959375808646,0.003769958031050727,0.0,0.1646038883968776,0.23300855751066632,0.04771252029044745,1267.1847010144888,14665.833716461342
0.37018509254627313,808.9024084022294,769.714420417562,0.003949213527693826,0.0,0.16465949678127348,0.23295293427060504,0.04771249680581527,1267.1459259179176,14676.408185742916
0.38019009504752377,811.3266083423837,773.3192839993711,0.0041316841884414274,0.0,0.16471610062260186,0.23289631390122192,0.047712470677384364,1267.1064541233864,14687.021477372258
0.39019509754877435,813.6781381996008,776.814327611363,0.004317302969252753,0.0,0.16477367896416126,0.23283871725013983,0.047712441732718346,1267.0663000338677,14697.671982885968
0.400200100050025,815.9593731786229,780.2032052456775,0.004506003904031311,0.0,0.16483221118409966,0.23278016483032754,0.047712409799690485,1267.025477819409,14708.358143993179
0.4102051025512756,818.1726010132494,783.4894323419226,0.004697722146933329,0.0,0.1648916770092389,0.23272067680677602,0.04771237470727426,1266.984001408419,14719.078451007874
0.42021010505252626,820.3200257859257,786.6763920847397,0.004892394007046245,0.0,0.16495205652650585,0.23266027298554923,0.04771233628630592,1266.9418844805857,14729.83144135183
0.4302151075537769,822.4037715132237,789.767341302626,0.005089956976421153,0.0,0.16501333019227252,0.23259897280490616,0.04771229437021468,1266.8991404612157,14740.615698122225
0.4402201100550275,824.4258856578628,792.7654162236919,0.005290349749833962,0.0,0.16507547883908896,0.23253679532900076,0.04771224879570739,1266.8557825173368,14751.42984863649
0.4502251125562781,826.3883424052833,795.6736378349822,0.005493512239458691,0.0,0.16513848368079626,0.23247375924317285,0.04771219940340676,1266.8118235548768,14762.272563051381
0.46023011505752875,828.2930457383187,798.494916901496,0.005699385585060326,0.0,0.1652023263162068,0.23240988285064132,0.047712146038441795,1266.7672762167806,14773.142553044428
0.4702351175587794,830.1418323204734,801.2320586642196,0.005907912160497298,0.0,0.16526698873159676,0.23234518407035454,0.04771208855098995,1266.7221528819036,14784.038570557921
0.48024012006003003,831.9364743318114,803.8877674444238,0.006119035574432978,0.0,0.1653324533013463,0.23227968043665362,0.047712026796757075,1266.6764656651217,14794.959406522597
0.4902451225612806,833.6786821298139,806.4646509555697,0.006332700668108539,0.0,0.16539870278761995,0.23221338909986133,0.04771196063740259,1266.6302264180438,14805.90388964052
0.5002501250625313,835.3701067494636,808.9652243474095,0.006548853510687026,0.0,0.16546572033924592,0.23214632682763775,0.047711889940911426,1266.583446730225,14816.87088522386
0.5102551275637819,837.0123422469931,811.3919139912681,0.006767441392789077,0.0,0.1655334894899905,0.2320785100069095,0.047711814581915965,1266.5361379307403,14827.8592940919
0.5202601300650325,838.6069280096624,813.7470611982693,0.006988412815990385,0.0,0.16560199415552276,0.23200995464706853,0.04771173444195399,1266.4883110905973,14838.868051452582
0.5302651325662832,840.1553509381213,816.0329257258227,0.007211717480613099,0.0,0.1656712186298039,0.23194067638371257,0.047711649409674484,1266.4399770254888,14849.896125828867
0.5402701350675337,841.6590474979624,818.2516890686651,0.007437306272425487,0.0,0.1657411475810963,0.23187069048273676,0.047711559380996124,1266.3911462987564,14860.942518036
0.5502751375687843,843.1194056437879,820.4054575411446,0.007665131248695049,0.0,0.16581176604773426,0.2318000118446357,0.04771146425922311,1266.3418292244694,14872.006260211401
0.560280140070035,844.5377667153064,822.4962653058112,0.007895145621482436,0.0,0.1658830594329901,0.23172865500967607,0.04771136395510588,1266.2920358710712,14883.086414834992
0.5702851425712856,845.9154272432695,824.5260772525089,0.008127303739887553,0.0,0.16595501349957723,0.23165663416340465,0.04771125838685859,1266.241776065228,14894.182073781483
0.5802901450725363,847.2536406470563,826.4967917009166,0.008361561072069356,0.0,0.16602761436405203,0.2315839631422352,0.04771114748014142,1266.191059395706,14905.292357419306
0.5902951475737869,848.5536188284806,828.4102429347462,0.008597874187306669,0.0,0.16610084849120105,0.23151065543903035,0.047711031168011814,1266.1398952172253,14916.416413756151
0.6003001500750375,849.8165337395271,830.2682036880972,0.008836200736257089,0.0,0.166174702687833,0.23143672420925274,0.04771090939083454,1266.0882926546792,14927.553417580993
0.6103051525762881,851.0435188887486,832.0723875299337,0.009076499430481737,0.0,0.16624916409631538,0.2313621822773515,0.04771078209616007,1266.0362606074932,14938.702569627068
0.6203101550775387,852.2356707566836,833.8244511017933,0.009318730022292792,0.0,0.16632422018819176,0.2312870421430544,0.04771064923858106,1265.983807753907,14949.863095777646
0.6303151575787894,853.3940501269161,835.5259962197684,0.009562853285023912,0.0,0.16639985875791424,0.23121131598753256,0.0477105107795702,1265.9309425551494,14961.03424631243
0.64032016008004,854.5196833909381,837.1785719305868,0.00980883099222569,0.0,0.16647606791621877,0.23113501567990566,0.04771036668729147,1265.877673259834,14972.215295156126
0.6503251625812906,855.6135638136095,838.7836765017491,0.010056625896246929,0.0,0.16655283608329238,0.23105815278394282,0.04771021693639078,1265.8240079084778,14983.405539138847
0.6603301650825413,856.6766527215464,840.3427592884566,0.010306201707471749,0.0,0.1666301519821348,0.23098073856456172,0.04771006150777678,1265.7699543378676,14994.604297295733
0.6703351675837919,857.7098806229711,841.8572224910532,0.010557523074169474,0.0,0.16670800463210345,0.23090278399414016,0.04770990038839339,1265.7155201852947,15005.81091020152
0.6803401700850426,858.7141483004859,843.3284228668152,0.010810555561822987,0.0,0.1667863833422846,0.23082429975899219,0.047709733570978664,1265.6607128928922,15017.024739312219
0.6903451725862931,859.6903278807802,844.7576734023723,0.011065265631948823,0.0,0.16686527770469683,0.23074529626600496,0.04770956105381216,1265.6055397120754,15028.245166311497
0.7003501750875437,860.6392638685418,846.1462449243885,0.01132162086183056,0.0,0.16694467766225768,0.2306657835745118,0.04770938284046165,1265.550007655888,15039.471592492711
0.7103551775887944,861.5617950542967,847.4953973054756,0.011579758985250942,0.0,0.16702462596772838,0.23058571893717653,0.04770919893951283,1265.4940869454879,15050.703438230557
0.720360180090045,862.4590991580493,848.8068678307336,0.011842786238898327,0.0,0.16710608660638945,0.2305041383764471,0.04770900936319264,1265.4371058949616,15061.940146364392
0.7303651825912957,863.3316560700499,850.0814006547416,0.012108426183057415,0.0,0.16718835313623953,0.23042174834437196,0.04770881412739342,1265.379556770353,15073.18118029814
0.7403701850925463,864.1800874310487,851.3199397699096,0.012375677458907434,0.0,0.16727111482189091,0.23033885959016354,0.0477086132539794,1265.3216561174906,15084.42601446653
0.7503751875937968,865.0051130335852,852.5235661668886,0.012644509360262547,0.0,0.1673543621586754,0.23025548163494933,0.04770840676897928,1265.2634105905631,15095.674139548915
0.7603801900950475,865.807430522098,853.6933271532503,0.012914894297818872,0.0,0.1674380866124883,0.23017162303167074,0.04770819470218023,1265.2048261718276,15106.92506252304
0.7703851925962981,866.5877158759544,854.8302371389937,0.013186805425239983,0.0,0.16752227988286067,0.23008729210185352,0.04770797708687843,1265.1459086848074,15118.178306154743
0.7803901950975487,867.3466241383642,855.9352787640549,0.013460216614991787,0.0,0.1676069338952473,0.2300024969431667,0.04770775395963827,1265.0866637993847,15129.433408515624
0.7903951975987994,868.0847901086006,857.0094039680941,0.013735102440905355,0.0,0.16769204079540997,0.22991724543489275,0.047707525360058976,1265.0270970354466,15140.68992252266
0.80040020010005,868.8028290060918,858.0535350158191,0.01401143816115138,0.0,0.16777759294393355,0.22983154524326713,0.04770729133054778,1264.9672137664368,15151.947415493423
0.8104052026013007,869.5013371362262,859.0685655231439,0.014289199700593095,0.0,0.16786358291055262,0.2297454038270105,0.04770705191609634,1264.9070192230545,15163.20546869522
0.8204102051025512,870.1808925169114,860.0553614222234,0.014568363633985799,0.0,0.16795000346874966,0.22965882844259575,0.04770680716406714,1264.8465184967658,15174.463676918655
0.8304152076038018,870.8420554739719,861.0147618778122,0.014848907169802718,0.0,0.16803684759055504,0.22957182614931806,0.047706557123988524,1264.785716543191,15185.7216480701
0.8404202101050525,871.4853692093895,861.9475801611587,0.015130808134594016,0.0,0.16812410844151976,0.2294844038141976,0.04770630184735798,1264.7246181853782,15196.979002780654
0.8504252126063031,872.1113603738756,862.8546045291075,0.015414044956759965,0.0,0.1682117793755113,0.22939656811706288,0.047706041387450486,1264.663228117207,15208.235374008207
0.8604302151075538,872.7205396073447,863.7365990534075,0.015698596651077402,0.0,0.16829985392975172,0.22930832555539732,0.04770577579913676,1264.6015509066353,15219.490406660125
0.8704352176088044,873.3134020530138,864.5943044090182,0.015984442803819398,0.0,0.16838832582004745,0.2292196824490002,0.04770550513871044,1264.539590998821,15230.743757232549
0.880440220110055,873.8904278460345,865.4284386229115,0.016271563558475293,0.0,0.16847718893621338,0.22913064494445856,0.04770522946372346,1264.4773527191207,15241.995093465968
0.8904452226113057,874.4520826071631,866.2396978294561,0.01655993960095277,0.0,0.16856643733734122,0.22904121901977875,0.04770494883282768,1264.414840276202,15253.244093994428
0.9004502251125562,874.9988179109495,867.028756986369,0.01684955214541081,0.0,0.16865606524727172,0.22895141048881942,0.047704663305625596,1264.3520577650256,15264.490448011351
0.9104552276138069,875.5310717311207,867.7962705553946,0.017140382920659156,0.0,0.16874606705025003,0.22886122500554718,0.04770437294252915,1264.2890091697084,15275.733854950297
0.9204602301150575,876.0492688627454,868.5428731471776,0.017432414157172872,0.0,0.16883643728677875,0.22877066806809904,0.047704077804626495,1264.2256983662585,15286.974024181167
0.9304652326163081,876.5538213487831,869.2691801719545,0.01772562857368328,0.0,0.1689271706493455,0.2286797450229748,0.047703777953555036,1264.1621291254048,15298.210674701195
0.9404702351175588,877.0451288872022,869.9757884602212,0.01802000936426151,0.0,0.16901826197830985,0.2285884610690746,0.04770347345138248,1264.0983051153257,15309.44353483882
0.9504752376188094,877.523579217986,870.6632768524343,0.01831554018594727,0.0,0.16910970625796626,0.2284968212615654,0.047703164360495126,1264.0342299042613,15320.672341971134
0.9604802401200601,877.9895484894366,871.3322067569356,0.018612205146972486,0.0,0.16920149861279749,0.22840483051556135,0.047702850743492925,1263.9699069630042,15331.896842255528
0.9704852426213106,878.4434016274479,871.9831227117377,0.018909988794668604,0.0,0.16929363430363534,0.22831249360990039,0.04770253266309081,1263.9053396674587,15343.116790357739
0.9804902451225612,878.8854926906909,872.6165529245329,0.019208876103727356,0.0,0.16938610872393692,0.22821981519080983,0.047702210182026666,1263.8405313011297,15354.33194918928
0.9904952476238119,879.3161652078071,873.2330097851228,0.019508852464987257,0.0,0.1694789173962298,0.22812679977540712,0.047701883362975595,1263.7754850575006,15365.542089657365
1.0005002501250626,879.73575249646,873.8329903501029,0.01980990367477344,0.0,0.16957205596873348,0.22803345175502746,0.047701552268469685,1263.7102040422933,15376.746990427599
1.0105052526263132,880.1445779836187,874.4169768289263,0.020112015924030814,0.0,0.16966552021192197,0.22793977539861413,0.04770121696082358,1263.6446912757788,15387.94643768473
1.0205102551275638,880.5429555163048,874.9854370551909,0.02041517578768077,0.0,0.16975930601516073,0.22784577485603802,0.04770087750206564,1263.578949695039,15399.140224899795
1.0305152576288144,880.9311896561146,875.5388249331457,0.02071937021448309,0.0,0.1698534093835048,0.2277514541612594,0.04770053395387419,1263.5129821561259,15410.328152608785
1.040520260130065,881.3095759580573,876.0775808602882,0.021024586517398764,0.0,0.16994782643465628,0.2276568172353324,0.04770018637751829,1263.4467914361119,15421.510028202538
1.0505252626313157,881.6784012488467,876.602132148775,0.021330812363849767,0.0,0.17004255339589436,0.2275618678894414,0.0476998348338034,1263.3803802351658,15432.685665716388
1.0605302651325663,882.0379438994114,877.1128934377994,0.021638035766088626,0.0,0.17013758660104342,0.2274666098279009,0.04769947938302188,1263.31375117861,15443.854885623603
1.070535267633817,882.3884740827287,877.6102670836382,0.021946245072049644,0.0,0.17023292248759447,0.22737104665100563,0.04769912008490757,1263.2469068188714,15455.017514639494
1.0805402701350675,882.7302540182435,878.0946435292929,0.022255428956644573,0.0,0.17032855759396712,0.2272751818577419,0.04769875699859365,1263.179849637343,15466.173385535234
1.090545272636318,883.0635382141087,878.5664016705831,0.0225655764130478,0.0,0.17042448855677236,0.22717901884850106,0.04769839018257483,1263.1125820462453,15477.322336952922
1.1005502751375686,883.3885737066147,879.0259092177448,0.022876676743997425,0.0,0.17052071210808373,0.22708256092778673,0.04769801969467361,1263.0451063904904,15488.464213222398
1.1105552776388194,883.7056002863868,879.4735230369515,0.02318871955354989,0.0,0.1706172250728517,0.22698581130678094,0.047697645592009445,1262.9774249494476,15499.598864187818
1.12056028014007,884.0148507131775,879.9095894745257,0.02350169473922379,0.0,0.17071402436644167,0.22688877310578864,0.047697267930970726,1262.9095399386263,15510.726145042583
1.1305652826413206,884.316550927114,880.3344446756245,0.023815592484211463,0.0,0.17081110699219507,0.22679144935666043,0.047696886767189944,1262.8414535113486,15521.845916166734
1.1405702851425712,884.6109202593753,880.7484149018409,0.024130403249533562,0.0,0.17090847003897697,0.22669384300523213,0.04769650215552247,1262.7731677604302,15532.958042964548
1.1505752876438218,884.8981716310233,881.151816830883,0.024446117766614376,0.0,0.17100611067885513,0.22659595691363305,0.04769611415002751,1262.70468471978,15544.062395710962
1.1605802901450726,885.1785117421708,881.5449578416119,0.02476272703019551,0.0,0.17110402616488668,0.22649779386248894,0.04769572280395102,1262.6360063659197,15555.158849405174
1.1705852926463232,885.4521412565525,881.928136292029,0.02508022229137905,0.0,0.1712022138289465,0.2263993565530844,0.04769532816971115,1262.5671346194815,15566.247283627608
1.1805902951475737,885.7192549870988,882.3016417985865,0.02539859505056262,0.0,0.171300671079525,0.22630064760955726,0.04769493029888676,1262.49807134673,15577.32758239602
1.1905952976488243,885.9800420710416,882.6657554996862,0.025717837050757093,0.0,0.17139939539964638,0.22620166958097485,0.047694529242207524,1262.4288183610008,15588.399634029442
1.200600300150075,886.2346861368095,883.0207503067625,0.026037940271198348,0.0,0.17149838434487874,0.226102424943318,0.047694125049545455,1262.359377424077,15599.463331018345
1.2106053026513257,886.4833654656159,883.3668911472975,0.026358896921133548,0.0,0.1715976355414004,0.2260029161014106,0.04769371776990808,1262.2897502475303,15610.51856989873
1.2206103051525763,886.726253155035,883.7044352106635,0.026680699433468392,0.0,0.17169714668402508,0.22590314539089176,0.04769330745143453,1262.2199384940916,15621.565251124704
1.2306153076538269,886.9635172734856,884.0336321802562,0.027003340458754528,0.0,0.17179691553433407,0.22580311508008202,0.04769289414139257,1262.1499437789507,15632.60327894796
1.2406203101550775,887.1953210076861,884.3547244550161,0.02732681285943397,0.0,0.17189693991888855,0.22570282737176967,0.0476924778861766,1262.0797676709976,15643.632561302558
1.250625312656328,887.4218228044251,884.6679473623542,0.027651109704286723,0.0,0.17199721772750592,0.22560228440493355,0.04769205873130682,1262.0094116940247,15654.653009694039
1.2606303151575788,887.6431765147955,884.9735293746395,0.027976224262727358,0.0,0.172097746911492,0.22550148825651245,0.047691636721430834,1261.9388773279609,15665.664539086687
1.2706353176588294,887.8595315307153,885.2716923140755,0.028302149999394843,0.0,0.17219852548196407,0.22540044094308304,0.04769121190032588,1261.8681660100408,15676.667067796705
1.28064032016008,888.0710329153486,885.5626515483765,0.02862888056897055,0.0,0.1722995515082457,0.22529914442246704,0.04769078431090177,1261.79727913593,15687.660517390026
1.2906453226613306,888.2778215277756,885.8466161777828,0.028956409811212433,0.0,0.17240082311632915,0.22519760059527102,0.047690353995204236,1261.7262180607966,15698.644812584502
1.3006503251625812,888.4800341501682,886.1237892257177,0.02928473174584294,0.0,0.17250233848729402,0.22509581130647113,0.04768992099442073,1261.6549841004248,15709.619881150305
1.310655327663832,888.6778036086374,886.3943678199263,0.029613840567680107,0.0,0.17260409585580203,0.22499377834692236,0.047689485348886354,1261.5835785322658,15720.585653815184
1.3206603301650826,888.8712588886738,886.6585433654765,0.029943730641975152,0.0,0.17270609350865618,0.22489150345480344,0.0476890470980903,1261.5120025964543,15731.54206417386
1.3306653326663331,889.0605252450486,886.9165017094329,0.03027439649996606,0.0,0.17280832978342656,0.2247889883169949,0.04768860628068239,1261.4402574967698,15742.489048601647
1.3406703351675837,889.2457243139135,887.1684233087326,0.030605832834303195,0.0,0.17291080306703888,0.22468623457049614,0.04768816293448158,1261.3683444016328,15753.426546166565
1.3506753376688343,889.4269742199364,887.4144833906001,0.030938034494666245,0.0,0.17301351179442204,0.22458324380378336,0.04768771709648462,1261.2962644450563,15764.354498545266
1.360680340170085,889.6043896785512,887.6548521056153,0.03127099648357212,0.0,0.17311645444721524,0.2244800175581079,0.047687268802874896,1261.2240187275574,15775.272849942741
1.3706853426713357,889.7780820930549,887.8896946730534,0.031604713952388654,0.0,0.1732196295525388,0.2243765573287309,0.04768681808903118,1261.1516083170243,15786.181547015929
1.3806903451725863,889.9481596533915,888.1191715286773,0.031939182197247534,0.0,0.17332303568173527,0.22427286456618903,0.04768636498953786,1261.079034249605,15797.080538796261
1.3906953476738368,890.1147274312558,888.343438466993,0.03227439665509783,0.0,0.17342667144915394,0.22416894067751622,0.04768590953819552,1261.0062975305677,15807.96977661503
1.4007003501750874,890.2778874707108,888.5626467767764,0.032610352899938515,0.0,0.1735305355109914,0.22406478702740976,0.04768545176803129,1260.9333991351198,15818.849214032247
1.4107053526763382,890.437738874144,888.7769433696142,0.0329470466392411,0.0,0.17363462656419026,0.22396040493933836,0.047684991711309,1260.860340009188,15829.71880676904
1.4207103551775888,890.5943778893061,888.9864709100066,0.03328447371030203,0.0,0.1737389433453175,0.2238557956966704,0.04768452939954057,1260.7871210702124,15840.578512639417
1.4307153576788394,890.7478979938144,889.1913679416568,0.03362263007668916,0.0,0.17384348462947222,0.22375096054377416,0.047684064863497626,1260.7137432079237,15851.428291484035
1.44072036018009,890.8983899755106,889.3917690075443,0.033961511824857314,0.0,0.17394824922924537,0.2236459006870646,0.047683598133222815,1260.6402072850767,15862.268105107163
1.4507253626813406,891.0459420086839,889.5878047638117,0.03430111516093482,0.0,0.17405323599373265,0.22354061729599808,0.047683129238040835,1260.566514138156,15873.09791721682
1.4607303651825914,891.1906397307611,889.7796020943084,0.034641436407470964,0.0,0.17415844380753545,0.22343511150407833,0.04768265820657031,1260.4926645780831,15883.91769336469
1.470735367683842,891.3325663174453,889.9672842227886,0.03498247200023673,0.0,0.17426387158977927,0.2233293844098462,0.04768218506673597,1260.4186593909164,15894.727400887354
1.4807403701850925,891.4718025540161,890.1509708193665,0.035324218485185105,0.0,0.17436951829318081,0.22322343707781994,0.04768170984578048,1260.3444993385126,15905.527008850451
1.490745372686343,891.6084269030196,890.3307781015701,0.03566667251556244,0.0,0.17447538290316175,0.2231172705393882,0.04768123257027585,1260.2701851591603,15916.31648799562
1.5007503751875937,891.7425155718524,890.506818935213,0.0360098308490098,0.0,0.17458146443696002,0.22301088579370718,0.04768075326613537,1260.1957175682126,15927.09581068763
1.5107553776888443,891.8741425796038,890.6792029341234,0.03635369034468346,0.0,0.1746877619427472,0.22290428380859018,0.04768027195862604,1260.121097258715,15937.864950862231
1.520760380190095,892.0033798203549,890.8480365545863,0.03669824796052521,0.0,0.174794274498792,0.2227974655213522,0.04767978867238046,1260.0463249020052,15948.623883976727
1.5307653826913457,892.1302971233604,891.0134231851215,0.03704350075066422,0.0,0.17490100121266444,0.22269043183961296,0.04767930343140829,1259.971401148277,15959.372586962878
1.5407703851925962,892.2549623126354,891.1754632353553,0.037389445862834436,0.0,0.17500794122044458,0.22258318364209537,0.04767881625910808,1259.8963266271503,15970.111038180432
1.5507753876938468,892.3774412664208,891.3342542246868,0.037736080535784214,0.0,0.17511509368592995,0.22247572177942612,0.047678327178279495,1259.8211019482335,15980.839217370858
1.5607803901950974,892.4977979734181,891.4898908661256,0.038083402096824794,0.0,0.17522245779988493,0.22236804707489347,0.047677836211135055,1259.745727701663,15991.557105613565
1.5707853926963482,892.6160945863426,891.6424651461334,0.03843140795949299,0.0,0.17533003277932568,0.22226016032516982,0.047677343379311454,1259.670204458613,16002.264685284143
1.5807903951975988,892.732391474491,891.7920664029721,0.03878009562124955,0.0,0.175437817866816,0.22215206230102275,0.04767684870388097,1259.5945327718005,16012.961940013465
1.5907953976988494,892.8467472766409,891.9387814055303,0.039129462661150756,0.0,0.17554581232975536,0.22204375374803473,0.04767635220536336,1259.5187131759956,16023.648854646694
1.6008004002001,892.9592189510388,892.0826944278026,0.039479506737646414,0.0,0.17565401545970566,0.22193523538728333,0.047675853903737284,1259.4427461885018,16034.325415204494
1.6108054027013505,893.0698618230886,892.2238873199386,0.039830225586476774,0.0,0.17576242657174837,0.22182650791599123,0.04767535381845117,1259.36663230962,16044.991608846003
1.6208104052026013,893.1787296317648,892.3624395773804,0.040181617018620566,0.0,0.1758710450038575,0.2217175720081602,0.04767485196843422,1259.2903720230956,16055.647423832825
1.630815407703852,893.2858745766545,892.4984284109178,0.04053367891820377,0.0,0.1759798701162605,0.2216084283152169,0.04767434837210775,1259.2139657965786,16066.29284949273
1.6408204102051025,893.3913473624233,892.6319288128989,0.04088640924052134,0.0,0.17608890129083457,0.22149907746662434,0.04767384304739611,1259.1374140820556,16076.92787618531
1.650825412706353,893.4951972412977,892.763013620489,0.0412398060101449,0.0,0.17619813793052821,0.22138952007046608,0.04767333601173716,1259.0607173162666,16087.552495269127
1.6608304152076037,893.5974720540906,892.8917535767443,0.04159386731909213,0.0,0.17630757945880257,0.221279756714012,0.047672827282092566,1258.9838759211057,16098.16669907
1.6708354177088545,893.6982182720091,893.0182173928395,0.04194859132495039,0.0,0.1764172253190587,0.2211697879642975,0.04767231687495864,1258.9068903040325,16108.770480848905
1.680840420210105,893.7974810362347,893.1424718069726,0.04230397624909899,0.0,0.17652707497409498,0.22105961436867289,0.04767180480637661,1258.8297608584624,16119.363834771537
1.6908454227113556,893.8953041957783,893.2645816406973,0.04266002037500685,0.0,0.1766371279055878,0.22094923645532877,0.04767129109194261,1258.7524879641403,16129.946755879191
1.7008504252126062,893.9917303437888,893.3846098529509,0.04301672204659752,0.0,0.1767473836135927,0.22083865473380135,0.047670775746817315,1258.6750719875004,16140.519240060805
1.7108554277138568,894.08680085468,893.5026175952829,0.0433740796665679,0.0,0.17685784161603146,0.2207278696954911,0.047670258785736046,1258.5975132820324,16151.081284024604
1.7208604302151076,894.1805559193887,893.6186642643019,0.04373209169478991,0.0,0.176968501448205,0.22061688181415687,0.04766974022301856,1258.5198121886358,16161.632885271121
1.7308654327163582,894.2730345791035,893.7328075518398,0.044090756646779625,0.0,0.17707936266232643,0.22050569154638794,0.04766922007257831,1258.4419690359543,16172.174042067394
1.7408704352176088,894.3642747574528,893.8451034928243,0.04445007309223516,0.0,0.1771904248270753,0.22039429933205607,0.0476686983479315,1258.3639841406964,16182.704753422311
1.7508754377188593,894.4543132934365,893.9556065142447,0.0448100396535322,0.0,0.1773016875271391,0.22028270559477955,0.04766817506220649,1258.2858578079683,16193.225019061563
1.76088044022011,894.5431859728624,894.064369481886,0.04517065500428626,0.0,0.17741315036277516,0.22017091074236733,0.047667650228152864,1258.2075903315872,16203.734839403765
1.7708854427213607,894.6309275583906,894.1714437449978,0.04553191786797685,0.0,0.17752481294939143,0.22005891516724355,0.04766712385815018,1258.1291819943845,16214.234215537577
1.7808904452226113,894.7175718181169,894.2768791787784,0.045893827016637745,0.0,0.17763667491714752,0.21994671924685194,0.04766659596421631,1258.0506330684939,16224.723149199932
1.7908954477238619,894.8031515547528,894.380724227746,0.04625638126951287,0.0,0.17774873591054502,0.2198343233440708,0.04766606655801613,1257.9719438156471,16235.201642753982
1.8009004502251125,894.8876986336704,894.48302594741,0.046619579491762424,0.0,0.17786099558803384,0.2197217278076123,0.04766553565086998,1257.8931144874573,16245.669699167904
1.810905452726363,894.9712440096664,894.5838300440415,0.04698342059322662,0.0,0.1779734536216354,0.21960893297240416,0.047665003253761766,1257.8141453256917,16256.12732199467
1.8209104552276139,895.0538177523765,894.6831809124322,0.04734790352725131,0.0,0.17808610969658537,0.21949593915995197,0.04766446937734665,1257.7350365625286,16266.574515352784
1.8309154577288644,895.1354490721113,894.7811216742762,0.04771302728948823,0.0,0.178198963510968,0.21938274667870966,0.047663934031959086,1257.6557884208232,16277.01128390688
1.840920460230115,895.2161663448882,894.8776942153459,0.04807879091673035,0.0,0.1783120147753621,0.21926935582443885,0.047663397227620606,1257.5764011143624,16287.43763284893
1.8509254627313656,895.2959971362682,894.9729392208975,0.04844519348580151,0.0,0.17842526321250265,0.21915576688055155,0.047662858974047304,1257.4968748481076,16297.853567880346
1.8609304652326162,895.374968223984,895.066896209275,0.048812234112502045,0.0,0.17853870855696025,0.21904198011843548,0.047662319280656944,1257.417209818431,16308.25909519494
1.870935467733867,895.4531056208004,895.1596035658524,0.049179911950538974,0.0,0.17865235055481546,0.21892799579778446,0.04766177815657628,1257.3374062133453,16318.654221461864
1.8809404702351176,895.5304345968597,895.2510985762088,0.04954822619047748,0.0,0.1787661889633396,0.2188138141669217,0.047661235610648285,1257.257464212739,16329.038953808942
1.8909454727363681,895.6069797009158,895.3414174576498,0.049917176058743865,0.0,0.1788802235506918,0.2186994354631076,0.04766069165143895,1257.1773839885934,16339.413299806867
1.9009504752376187,895.6827647804992,895.43059538914,0.05028676081667814,0.0,0.17899445409563058,0.21858485991283214,0.0476601462872439,1257.097165705192,16349.7772674541
1.9109554777388693,895.7578130021374,895.5186665413127,0.05065697975958043,0.0,0.17910888038722367,0.21847008773210896,0.04765959952609505,1257.0168095193296,16360.130865161875
1.9209604802401201,895.8321468713052,895.6056641060717,0.05102783221576736,0.0,0.1792235022245614,0.21835511912676675,0.04765905137576716,1256.9363155805206,16370.474101739454
1.9309654827413707,895.9057882513392,895.6916203246584,0.051399317545676636,0.0,0.17933831941648407,0.21823995429272544,0.04765850184378417,1256.8556840311949,16380.806986380132
1.9409704852426213,895.978758381425,895.7765665143359,0.051771435141015294,0.0,0.17945333178132308,0.21812459341625887,0.04765795093742526,1256.7749150068887,16391.129528647893
1.9509754877438719,896.0510778944796,895.8605330949167,0.05214418442390979,0.0,0.17956853914664253,0.2180090366742572,0.04765739866373076,1256.694008636427,16401.44173846421
1.9609804902451224,896.1227668349593,895.9435496151716,0.05251756484605723,0.0,0.17968394134898116,0.21789328423448884,0.04765684502950835,1256.6129650421137,16411.743626095013
1.970985492746373,896.193844675714,896.0256447778253,0.052891575887921094,0.0,0.17979953823360778,0.21777733625584822,0.0476562900413387,1256.5317843399075,16422.035202138326
1.9809904952476238,896.2643303340393,896.1068464633562,0.05326621705796506,0.0,0.17991532965428855,0.21766119288859265,0.04765573370558107,1256.450466639591,16432.316477512424
1.9909954977488744,896.3342421874963,896.1871817534524,0.053641487891895615,0.0,0.18003131547305656,0.21754485427457565,0.0476551760283787,1256.3690120449369,16442.587463444273
2.001000500250125,896.4035980897999,896.2666769545586,0.054017387951898754,0.0,0.1801474955599801,0.21742832054748257,0.04765461701566435,1256.2874206538768,16452.848171457983
2.0110055027513756,896.4724153858429,896.345357620144,0.05439391682591769,0.0,0.1802638697929428,0.21731159183305335,0.04765405667316561,1256.2056925586592,16463.098613363873
2.0210105052526264,896.540710926027,896.4232485719359,0.05477107412696339,0.0,0.1803804380574344,0.21719466824929526,0.04765349500640985,1256.1238278460037,16473.338801248046
2.0310155077538767,896.6085010802651,896.5003739206664,0.055148859492439195,0.0,0.18049720024634547,0.21707754990669131,0.047652932020729205,1256.041826597246,16483.568747462163
2.0410205102551275,896.6758017521508,896.5767570870577,0.055527272583455224,0.0,0.18061415625975907,0.21696023690841165,0.047652367721265576,1255.9596888884926,16493.788464613277
2.0510255127563783,896.7426283923543,896.652420821661,0.05590631308417921,0.0,0.1807313060047535,0.2168427293505138,0.04765180211297544,1255.877414790762,16503.997965554205
2.0610305152576287,896.8089960114229,896.7273872238069,0.056285980701215994,0.0,0.18084864939521375,0.21672502732213417,0.04765123520063444,1255.7950043701214,16514.19726337422
2.0710355177588795,896.8749191921837,896.8016777599665,0.056666275163005285,0.0,0.18096618635164863,0.2166071309056737,0.04765066698884177,1255.7124576878193,16524.38637139016
2.08104052026013,896.9404121023725,896.8753132824363,0.0570471962192057,0.0,0.1810839168010037,0.21648904017698803,0.04765009748202482,1255.629774800422,16534.5653031374
2.0910455227613807,897.0054885065853,896.9483140470221,0.057428743640111725,0.0,0.181201840676484,0.21637075520556726,0.047649526684443506,1255.5469557599413,16544.734072361352
2.1010505252626315,897.0701617777123,897.0206997299474,0.05781091721609508,0.0,0.18131995791738456,0.21625227605470815,0.0476489546001944,1255.4640006139582,16554.892693009293
2.111055527763882,897.1344449079395,897.0924894441195,0.05819371675706685,0.0,0.18143826846892677,0.2161336027816803,0.04764838123321479,1255.3809094057406,16565.041179222462
2.1210605302651326,897.1983505199936,897.1637017557488,0.05857714209192527,0.0,0.18155677228209108,0.2160147354378962,0.0476478065872868,1255.297682174366,16575.179545328174
2.131065532766383,897.2618908778139,897.2343547001153,0.058961193068031215,0.0,0.18167546931345727,0.21589567406907317,0.04764723066604133,1255.2143189548362,16585.307805832304
2.141070535267634,897.3250778967681,897.3044657966548,0.05934586955070574,0.0,0.1817943595250523,0.21577641871538827,0.04764665347296186,1255.1308197781882,16595.42597541203
2.151075537768884,897.3879231534253,897.3740520633816,0.05973117142274896,0.0,0.18191344288420366,0.21565696941162682,0.047646075011388046,1255.0471846716011,16605.534068908928
2.161080540270135,897.4504378955615,897.4431300316529,0.06011709858394545,0.0,0.18203271936338974,0.2155373261873348,0.04764549528451945,1254.9634136585034,16615.632101322044
2.1710855427713858,897.5126330517002,897.5117157602333,0.06050365095059229,0.0,0.18215218894009622,0.21541748906696448,0.04764491429541919,1254.879506758679,16625.720087801183
2.181090545272636,897.5745192402381,897.5798248487442,0.06089082845504715,0.0,0.18227185159667877,0.21529745807001388,0.04764433204701728,1254.7954639883653,16635.798043640607
2.191095547773887,897.6361067781473,897.6474724504735,0.06127863104529729,0.0,0.18239170732023263,0.21517723321115953,0.04764374854211394,1254.7112853603487,16645.865984272903
2.2011005502751373,897.6974056898722,897.7146732854696,0.06166705868451704,0.0,0.18251175610245765,0.2150568145003931,0.047643163783382965,1254.6269708840623,16655.923925262883
2.211105552776388,897.7584257158676,897.7814416530928,0.062056111350643,0.0,0.18263199793952972,0.21493620194315238,0.04764257777337494,1254.5425205656795,16665.97188230174
2.221110555277639,897.8191763207583,897.8477914439992,0.06244578903596752,0.0,0.18275243283197745,0.21481539554044668,0.047641990514520415,1254.4579344082035,16676.00987120141
2.2311155577788893,897.8796667011021,897.9137361515295,0.06283609174675205,0.0,0.18287306078456425,0.214694395288976,0.047641402009132736,1254.3732124115522,16686.037907889226
2.24112056028014,897.9399057933045,897.9792888833065,0.06322701950283174,0.0,0.1829938818061689,0.214573201181253,0.04764081225941119,1254.2883545726459,16696.056008402567
2.2511255627813904,897.9999022812684,898.0444623724349,0.06361857233723256,0.0,0.183114895909669,0.21445181320572124,0.04764022126744385,1254.2033608854915,16706.064188883684
2.2611305652826412,898.0596646036988,898.1092689881768,0.06401075029580605,0.0,0.1832361031118302,0.21433023134686766,0.047639629035210455,1254.1182313412635,16716.062465574774
2.271135567783892,898.1192009610494,898.1737207460807,0.06440355343688166,0.0,0.18335750343320048,0.21420845558532975,0.04763903556458501,1254.0329659283789,16726.05085481325
2.2811405702851424,898.1785193225653,898.2378293182423,0.06479698183091363,0.0,0.1834790968980032,0.2140864858980047,0.04763844085733852,1253.9475646325782,16736.029373027068
2.291145572786393,898.2376274331542,898.3016060432969,0.06519103556013614,0.0,0.18360088353403237,0.2139643222581555,0.04763784491514167,1253.8620274369973,16745.99803673018
2.3011505752876436,898.296532819939,898.3650619359188,0.0655857147182345,0.0,0.1837228633725527,0.2138419646355125,0.04763724773956734,1253.7763543222443,16755.95686251818
2.3111555777888944,898.355242798492,898.4282076958368,0.06598101941003268,0.0,0.18384503644820496,0.2137194129963697,0.047636649332093,1253.6905452664653,16765.905867064197
2.321160580290145,898.4137644791194,898.4910537168987,0.06637694975117779,0.0,0.18396740279891005,0.21359666730368224,0.047636049694103164,1253.6046002454143,16775.845067114766
2.3311655827913955,898.4721047730496,898.5536100959794,0.06677350586782911,0.0,0.1840899624657746,0.2134737275171619,0.04763544882689176,1253.518519232524,16785.77447948586
2.3411705852926463,898.5302703983292,898.6158866414273,0.06717068789636255,0.0,0.18421271549300158,0.21335059359336875,0.04763484673166443,1253.432302198969,16795.69412105907
2.3511755877938967,898.5882678854474,898.677892881087,0.06756849598308885,0.0,0.18433566192780423,0.21322726548579768,0.047634243409540755,1253.3459491137269,16805.604008777987
2.3611805902951475,898.6461035829644,898.739638070294,0.0679669302839719,0.0,0.1844588018203211,0.21310374314496533,0.04763363886155633,1253.259459943644,16815.50415964463
2.3711855927963983,898.7037836631105,898.8011311998067,0.06836599096434823,0.0,0.18458213522353056,0.21298002651849682,0.04763303308866502,1253.1728346534935,16825.39459071594
2.3811905952976486,898.7613141271194,898.8623810033063,0.06876567819866093,0.0,0.1847056621931702,0.21285611555120765,0.047632426091740974,1253.086073206036,16835.275319100467
2.3911955977988995,898.8187008103372,898.9233959645265,0.06916599217020547,0.0,0.18482938278765967,0.212732010185182,0.0476318178715806,1252.999175562075,16845.146361955198
2.40120060030015,898.8759493872967,898.984184324297,0.06956693307087776,0.0,0.1849532970680242,0.21260771035985054,0.04763120842890454,1252.912141680514,16855.007736482425
2.4112056028014006,898.9330653768192,899.0447540875841,0.06996850110092116,0.0,0.1850774050978177,0.21248321601206854,0.04763059776435961,1252.8249715184088,16864.859459926745
2.4212106053026514,898.9900541468794,899.1051130301413,0.07037069646868656,0.0,0.18520170694305021,0.21235852707618966,0.047629985878520624,1252.737665031024,16874.70154957212
2.431215607803902,899.0469209192902,899.1652687048302,0.0707735193904027,0.0,0.1853262026721179,0.21223364348413684,0.04762937277189225,1252.650222171882,16884.534022739135
2.4412206103051526,899.1036707743306,899.2252284478068,0.0711769700899506,0.0,0.185450892355735,0.21210856516547208,0.04762875844491067,1252.5626428928126,16894.356896782305
2.451225612806403,899.1603086554404,899.2849993847537,0.07158104879863508,0.0,0.18557577606686385,0.21198329204746658,0.04762814289794543,1252.474927144004,16904.17018908743
2.4612306153076537,899.2168393737174,899.344588436753,0.07198575575496809,0.0,0.18570085388064972,0.2118578240551677,0.04762752613130106,1252.3870748740492,16913.973917069106
2.4712356178089045,899.2732676122743,899.4040023258711,0.07239109120446074,0.0,0.18582612587435748,0.21173216111146329,0.04762690814521871,1252.2990860299951,16923.7680981683
2.481240620310155,899.3295979305304,899.4632475805691,0.07279705539942083,0.0,0.18595159212731005,0.21160630313714374,0.0476262889398777,1252.2109605573828,16933.552749850078
2.4912456228114057,899.3858347686025,899.5223305411869,0.07320364859874615,0.0,0.1860772527208258,0.21148025005096605,0.04762566851539715,1252.1226984002963,16943.327889601296
2.501250625312656,899.4419824515397,899.5812573651007,0.07361087106772826,0.0,0.18620310773815882,0.2113540017697142,0.04762504687183748,1252.0342995014048,16953.09353492848
2.511255627813907,899.498045193462,899.6400340316267,0.0740187230778639,0.0,0.1863291572644421,0.2112275582082573,0.04762442400920186,1251.9457638020037,16962.849703355787
2.5212606303151577,899.5540271016386,899.6986663467184,0.07442720490667205,0.0,0.18645540138663147,0.21110091927960623,0.04762379992743763,1251.857091242057,16972.59641242299
2.531265632816408,899.6099321806904,899.7571599477476,0.07483631683750687,0.0,0.1865818401934491,0.21097408489497094,0.04762317462643777,1251.7682817602356,16982.333679683594
2.541270635317659,899.6657643366908,899.815520307995,0.07524605915937921,0.0,0.18670847377532943,0.21084705496381573,0.04762254810604222,1251.6793352939583,16992.061522703032
2.551275637818909,899.7215273812079,899.8737527409053,0.07565643216678462,0.0,0.18683530222436667,0.21071982939391243,0.047621920366039315,1251.5902517794295,17001.7799590569
2.56128064032016,899.7772250353181,899.9318624041181,0.07606743615953751,0.0,0.1869623256342647,0.2105924080913913,0.04762129140616693,1251.5010311516771,17011.489006329353
2.571285642821411,899.8328609337605,899.9898543035735,0.07647907144260069,0.0,0.18708954410028533,0.21046479096079365,0.04762066122611391,1251.4116733445871,17021.18868211148
2.581290645322661,899.8884386290525,900.0477332973625,0.07689133832592226,0.0,0.18721695771919858,0.21033697790512224,0.04762002982552124,1251.3221782909422,17030.87900399984
2.591295647823912,899.9439615956004,900.1055040993488,0.0773042371242779,0.0,0.18734456658923507,0.21020896882588985,0.04761939720398336,1251.232545922455,17040.559989595036
2.6013006503251623,899.9994332338186,900.1631712825575,0.07771776815711877,0.0,0.18747237081003965,0.21008076362316616,0.04761876336104923,1251.1427761698035,17050.231656500397
2.611305652826413,900.0548568744211,900.220739282612,0.07813193174841569,0.0,0.18760037048262415,0.20995236219562594,0.04761812829622358,1251.052868962662,17059.894022320692
2.621310655327664,900.1102357827456,900.2782124009469,0.07854672822650823,0.0,0.18772856570932178,0.20982376444059553,0.04761749200896809,1250.962824229738,17069.547104660982
2.6313156578289143,900.1655731631321,900.335594807792,0.0789621579239588,0.0,0.18785695659374246,0.2096949702540976,0.04761685449870247,1250.8726418988026,17079.19092112552
2.641320660330165,900.2208721633818,900.3928905449126,0.0793782211774118,0.0,0.18798554324073036,0.20956597953089517,0.04761621576480559,1250.782321896721,17088.825489316725
2.6513256628314155,900.2761358794206,900.4501035283618,0.07979491832744895,0.0,0.1881143257563198,0.20943679216453553,0.04761557580661655,1250.6918641494865,17098.450826834287
2.6613306653326663,900.3313673600867,900.5072375510323,0.0802122497184484,0.0,0.1882433042476927,0.20930740804739428,0.04761493462343576,1250.601268582249,17108.06695127428
2.671335667833917,900.3865696120527,900.5642962849694,0.08063021569844751,0.0,0.1883724788231367,0.20917782707071722,0.04761429221452603,1250.5105351193474,17117.67388022846
2.6813406703351674,900.4417456049221,900.621283283426,0.08104881661900994,0.0,0.1885018495920048,0.2090480491246617,0.04761364857911356,1250.4196636843376,17127.27163128357
2.6913456728364182,900.4968982765919,900.6782019828837,0.08146805283508946,0.0,0.18863141666467428,0.2089180740983384,0.04761300371638898,1250.3286542000226,17136.860222020754
2.7013506753376686,900.5520305388443,900.7350557048895,0.08188792470489553,0.0,0.18876118015250565,0.20878790187985283,0.04761235762550838,1250.2375065884828,17146.439670015123
2.7113556778389194,900.6071452831856,900.79184765763,0.08230843258976182,0.0,0.18889114016780273,0.20865753235634596,0.047611710305594405,1250.1462207711052,17156.009992835367
2.72136068034017,900.6622453869877,900.8485809372316,0.0827295768540176,0.0,0.1890212968237738,0.20852696541403384,0.04761106175573706,1250.0547966686102,17165.571208043457
2.7313656828414206,900.7173337199938,900.9052585289692,0.08315135786485642,0.0,0.18915165023449143,0.2083962009382481,0.047610411974994875,1249.9632342010811,17175.12333319452
2.7413706853426714,900.7724131511824,900.9618833082953,0.08357377599220446,0.0,0.1892822005148528,0.20826523881347653,0.047609760962395845,1249.871533287996,17184.666385836772
2.7513756878439217,900.8274865560347,901.0184580415792,0.08399683160859102,0.0,0.18941294778054027,0.20813407892340316,0.04760910871693844,1249.7796938482516,17194.200383511605
2.7613806903451725,900.8825568242801,901.0749853865404,0.08442052508902018,0.0,0.18954389214798223,0.2080027211509477,0.04760845523759258,1249.687715800194,17203.72534375376
2.7713856928464233,900.9376268681533,901.1314678925336,0.08484485681083978,0.0,0.18967503373431369,0.20787116537830608,0.04760780052330062,1249.595599061648,17213.241284091684
2.7813906953476737,900.9926996311785,901.1879080006473,0.08526982715360838,0.0,0.18980637265733552,0.20773941148699138,0.047607144572978426,1249.5033435499465,17222.74822204801
2.7913956978489245,901.0477780975656,901.2443080434786,0.085695436498963,0.0,0.18993790903547444,0.20760745935787472,0.04760648738551632,1249.4109491819572,17232.24617514016
2.801400700350175,901.1028653023243,901.3006702445688,0.08612168523048612,0.0,0.1900696429877428,0.20747530887122634,0.047605828959780196,1249.318415874115,17241.73516088116
2.8114057028514257,901.157964342112,901.3569967176285,0.0865485737335699,0.0,0.1902015746336969,0.2073429599067572,0.04760516929461245,1249.2257435424501,17251.21519678056
2.8214107053526765,901.2130783868187,901.4132894655769,0.08697610239527627,0.0,0.19033370409339512,0.20721041234366255,0.04760450838883313,1249.1329321026194,17260.686300345624
2.831415707853927,901.2682106920505,901.46955037922,0.08740427160419637,0.0,0.1904660314873546,0.2070776660606651,0.04760384624124102,1249.0399814699379,17270.148489082643
2.8414207103551776,901.3233646126521,901.525781235574,0.08783308175030753,0.0,0.19059855693650835,0.20694472093605912,0.0476031828506147,1248.9468915594096,17279.601780498488
2.851425712856428,901.3785436172774,901.5819836959241,0.08826253322482584,0.0,0.19073128056216013,0.20681157684775592,0.047602518215713756,1248.8536622857594,17289.046192102374
2.861430715357679,901.4337513039653,901.6381593037248,0.08869262642005396,0.0,0.19086420248593836,0.20667823367333094,0.047601852335279866,1248.7602935634684,17298.48174140792
2.8714357178589296,901.4889914169978,901.694309482139,0.08912336172922572,0.0,0.19099732282974896,0.2065446912900715,0.04760118520803811,1248.666785306807,17307.908445935376
2.88144072036018,901.5442678652008,901.7504355312414,0.08955473954634639,0.0,0.19113064171572672,0.20641094957502645,0.04760051683269813,1248.5731374298698,17317.32632321423
2.8914457228614308,901.5995847417472,901.8065386249648,0.08998676026602748,0.0,0.19126415926618542,0.2062770084050566,0.047599847207955424,1248.4793498466138,17326.735390786045
2.901450725362681,901.6549463452756,901.8626198079905,0.09041942428331538,0.0,0.19139787560356541,0.2061428676568881,0.04759917633249274,1248.3854224708932,17336.135666207672
2.911455727863932,901.7103572027846,901.9186799923713,0.09085273199351523,0.0,0.1915317908503804,0.2060085272071666,0.0475985042049814,1248.2913552165019,17345.527167054766
2.9214607303651827,901.7658220944791,901.974719953958,0.09128668379200859,0.0,0.19166590512916198,0.2058739869325135,0.047597830824082726,1248.1971479972099,17354.90991092571
2.931465732866433,901.821346080695,902.0307403287204,0.09172128007406448,0.0,0.19180021856240229,0.20573924670958413,0.047597156188449556,1248.102800726809,17364.28391544597
2.941470735367684,901.8769345305053,902.086741609298,0.09215652123464448,0.0,0.19193473127249489,0.20560430641512834,0.047596480296727715,1248.0083133191515,17373.64919827285
2.9514757378689342,901.9325931526764,902.1427241416031,0.09259240766820177,0.0,0.19206944338167348,0.205469165926052,0.04759580314755767,1247.913685688198,17383.005777100698
2.961480740370185,901.9883280291574,902.1986881216325,0.0930289397684742,0.0,0.1922043550119494,0.20533382511948128,0.047595124739576083,1247.8189177480613,17392.353669666652
2.971485742871436,902.0441456513416,902.2546335926555,0.09346611792827035,0.0,0.19233946628504647,0.20519828387282837,0.047594445071417524,1247.7240094130543,17401.692893756986
2.981490745372686,902.1000529583578,902.3105604432999,0.09390394253925244,0.0,0.1924747773223351,0.20506254206385874,0.047593764141716184,1247.628960597737,17411.023467213938
2.991495747873937,902.1560573782847,902.3664684064739,0.09434241399171543,0.0,0.19261028824476517,0.20492659957075904,0.04759308194910758,1247.5337712169667,17420.34540794316
3.0015007503751874,902.2121668724784,902.4223570594489,0.09478153267436261,0.0,0.1927459991727979,0.20479045627220677,0.04759239849223038,1247.4384411859462,17429.658733921908
3.011505752876438,902.2683899833493,902.478225825457,0.09522129897407934,0.0,0.19288191022633724,0.20465411204743972,0.047591713769728095,1247.3429704202733,17438.963463207987
3.0215107553776885,902.3247358843657,902.5340739775748,0.09566171327571098,0.0,0.19301802152466227,0.20451756677632468,0.04759102778025088,1247.2473588359917,17448.259613949307
3.0315157578789393,902.3812144333485,902.589900645099,0.09610277596184576,0.0,0.19315433318636124,0.20438082033942465,0.047590340522457183,1247.1516063496372,17457.547204394283
3.04152076038019,902.4378362292229,902.6457048230163,0.09654448741260514,0.0,0.19329084532926794,0.2042438726180632,0.04758965199501543,1247.055712878284,17466.826252903138
3.0515257628814405,902.4946126726112,902.7014853852987,0.09698684800544574,0.0,0.19342755807040157,0.2041067234943859,0.047588962196605473,1246.9596783395912,17476.096777960163
3.0615307653826913,902.5515560283944,902.7572411030886,0.09742985811498443,0.0,0.19356447152591344,0.20396937285141428,0.04758827112591996,1246.8635026518357,17485.358798186826
3.0715357678839417,902.6086794912923,902.8129706684299,0.0978735181128496,0.0,0.19370158581104172,0.2038318205730917,0.04758757878166546,1246.7671857339499,17494.612332355784
3.0815407703851925,902.6659972545839,902.8686727245787,0.09831782836756636,0.0,0.19383890104007676,0.20369406654431885,0.04758688516256321,1246.6707275055458,17503.85739940603
3.0915457728864433,902.7235245822204,902.9243459042051,0.09876278924448408,0.0,0.19397641732633847,0.20355611065097615,0.0475861902673496,1246.5741278869298,17513.09401845927
3.1015507753876936,902.7812778816506,902.9799888767874,0.09920840110576518,0.0,0.19411413478217335,0.20341795277992722,0.04758549409477612,1246.4773867991053,17522.322208837137
3.1115557778889444,902.8392747780368,903.0356004064042,0.09965466431044506,0.0,0.1942520535189721,0.20327959281900054,0.04758479664360867,1246.3805041637609,17531.54199007954
3.121560780390195,902.8975341899102,903.0911794214576,0.10010157921457592,0.0,0.19439017364721306,0.20314103065694497,0.04758409791262615,1246.2834799032366,17540.75338196417
3.1315657828914456,902.9560764060767,903.1467250982877,0.100549146171474,0.0,0.1945284952765375,0.20300226618335365,0.04758339790061821,1246.1863139404702,17549.956404527427
3.1415707853926964,903.0149231601704,903.2022369598315,0.10099736553209554,0.0,0.19466701851586285,0.20286329928854796,0.047582696606381925,1246.089006198914,17559.151078086143
3.1515757878939468,903.0740977026913,903.2577149907295,0.10144623764556034,0.0,0.19480574347354168,0.20272412986341598,0.04758199402871714,1245.9915566024185,17568.337423260327
3.1615807903951976,903.1336248704663,903.313159770678,0.10189576285984557,0.0,0.19494467025757176,0.20258475779919846,0.047581290166420466,1245.8939650750804,17577.51546099707
3.171585792896448,903.1935311525676,903.368572628129,0.10234594152268067,0.0,0.19508379897586745,0.20244518298721276,0.047580585018277485,1245.796231541043,17586.6852125957
3.1815907953976987,903.2538447482164,903.4239558142746,0.10279677398267373,0.0,0.19522312973660078,0.20230540531850522,0.04757987858305306,1245.6983559242487,17595.846699733524
3.1915957978989495,903.3145956152707,903.4793126975429,0.10324826059069499,0.0,0.1953626626486212,0.20216542468342433,0.0475791708594794,1245.6003381481326,17604.99994449211
3.2016008004002,903.3758155092625,903.534647979782,0.10370040170154902,0.0,0.1955023978219622,0.20202524097110475,0.04757846184624177,1245.5021781352536,17614.144969384295
3.2116058029014507,903.4375380110679,903.5899679347683,0.10415319767597517,0.0,0.19564233536844788,0.20188485406884984,0.0475777515419613,1245.4038758068523,17623.28179738198
3.221610805402701,903.499798538391,903.6452806658226,0.10460664888300157,0.0,0.19578247540240667,0.20174426386140562,0.047577039945174864,1245.3054310823295,17632.41045194384
3.231615807903952,903.5626343385669,903.7005963788575,0.10506075570266978,0.0,0.1959228180414972,0.2016034702301194,0.04757632705431179,1245.206843878647,17641.530957042483
3.2416208104052027,903.626084463149,903.7559276699704,0.10551551852916287,0.0,0.19606336340765695,0.20146247305197515,0.04757561286766713,1245.1081141096338,17650.64333719157
3.251625812906453,903.6901897219021,903.8112898242467,0.10597093777437099,0.0,0.19620411162818324,0.20132127219849247,0.04757489738337115,1245.0092416852003,17659.74761747252
3.261630815407704,903.7549926122258,903.8667011174396,0.10642701387189313,0.0,0.19634506283694642,0.20117986753449205,0.04757418059935516,1244.9102265104527,17668.843823560048
3.271635817908954,903.8205372216579,903.9221831101736,0.10688374728144764,0.0,0.1964862171757273,0.2010382589167344,0.047573462513313805,1244.8110684847197,17677.931981745547
3.281640820410205,903.8868691053254,903.9777609312742,0.10734113849371528,0.0,0.19662757479568552,0.20089644619242536,0.04757274312266356,1244.7117675004822,17687.01211895896
3.291645822911456,903.9540351368473,904.0334635417065,0.1077991880356108,0.0,0.1967691358589579,0.20075442919758882,0.0475720224244977,1244.6123234422082,17696.084262788823
3.301650825412706,904.0220833312561,904.0893239664404,0.10825789647593234,0.0,0.19691090054037122,0.20061220775532362,0.047571300415537685,1244.5127361851048,17705.148441499463
3.311655827913957,904.0910626399962,904.1453794782092,0.10871726443127197,0.0,0.19705286902923436,0.20046978167397908,0.04757057709208244,1244.4130055938128,17714.204684044227
3.3216608304152073,904.1610227219763,904.2016717305244,0.1091772925721918,0.0,0.19719504153121062,0.20032715074524918,0.04756985244995522,1244.313131521041,17723.25302007567
3.331665832916458,904.2320136916892,904.2582468299134,0.10963798162960284,0.0,0.19733741827025175,0.20018431474220355,0.047569126484448436,1244.2131138061563,17732.293479952186
3.341670835417709,904.3040858465182,904.315155336474,0.11009933240123852,0.0,0.19747999949056014,0.2000412734172897,0.04756839919026757,1244.1129522737558,17741.32609474048
3.3516758379189593,904.3772893776409,904.3724521788024,0.11056134575799369,0.0,0.19762278545851056,0.19989802650037666,0.04756767056147602,1244.0126467322625,17750.350896212603
3.36168084042021,904.4516740698962,904.4301964883481,0.11102402265013844,0.0,0.1977657764645334,0.19975457369683705,0.047566940591440635,1243.9121969725531,17759.36791683877
3.3716858429214605,904.5272889943644,904.4884513498172,0.11148736411329348,0.0,0.1979089728249256,0.1996109146857028,0.04756620927277904,1243.8116027666374,17768.377189775678
3.3816908454227113,904.6041821982697,904.5472834667602,0.11195137127404216,0.0,0.19805237488355087,0.19946704911793325,0.047565476597309544,1243.710863866417,17777.37874885023
3.391695847923962,904.6824004006088,904.606762740663,0.11241604535487074,0.0,0.19819598301333657,0.1993229766148904,0.04756474255600653,1243.6099800025913,17786.372628537356
3.4017008504252124,904.761988697566,904.6669617798198,0.11288138767850456,0.0,0.1983397976175862,0.1991786967670005,0.04756400713896037,1243.5089508837002,17795.358863933703
3.4117058529264632,904.8429902821305,904.7279553459801,0.11334739967153612,0.0,0.19848381913107735,0.19903420913263456,0.0475632703353429,1243.4077761953188,17804.33749072719
3.4217108554277136,904.9254461819824,904.7898197492422,0.11381408286726617,0.0,0.19862804802092063,0.19888951323723147,0.04756253213337904,1243.306455599428,17813.308545162574
3.4317158579289644,905.0093950252577,904.8526322039673,0.11428143890745758,0.0,0.1987724847870881,0.19874460857275697,0.047561792520327,1243.204988734024,17822.272064002438
3.441720860430215,905.0948728339596,904.9164701664058,0.11474946954316646,0.0,0.1989171299626616,0.19859949459744736,0.0475610514824658,1243.103375212933,17831.22808448526
3.4517258629314655,905.1819128471896,904.9814106678273,0.11521817663462101,0.0,0.19906198411379192,0.19845417073584723,0.04756030900509007,1243.0016146258336,17840.17664428084
3.4617308654327164,905.2705453751737,905.0475296562488,0.1156875621501532,0.0,0.19920704783936963,0.1983086363791398,0.047559565072512154,1242.8997065384879,17849.117781443634
3.4717358679339667,905.3607976918374,905.114901365415,0.11615762816396445,0.0,0.1993523217703421,0.1981628908858371,0.0475588196680734,1242.797650493233,17858.051534363673
3.4817408704352175,905.4526939609228,905.1835977241511,0.11662837685296804,0.0,0.19949780656874994,0.19801693358275513,0.047558072774162546,1242.6954460096733,17866.97794171658
3.4917458729364683,905.5462551942132,905.2536878150619,0.11709981049276677,0.0,0.19964350292649988,0.19787076376625665,0.04755732437224039,1242.5930925855625,17875.897042413097
3.5017508754377187,905.641499239734,905.3252373887245,0.117571931452832,0.0,0.19978941156389526,0.1977243807037399,0.047556574442870314,1242.490589697864,17884.80887554847
3.5117558779389695,905.7384408047031,905.3983084479033,0.11804474219076654,0.0,0.19993553322788754,0.197577783635411,0.04755582296575569,1242.3879368040116,17893.713480351933
3.52176088044022,905.8370915057443,905.4729589020129,0.11851824524589781,0.0,0.20008186869012362,0.19743097177626276,0.047555069919781846,1242.285133343319,17902.610896137117
3.5317658829414706,905.9374599422408,905.5492422906993,0.11899244323231029,0.0,0.20022841874482253,0.19728394431822718,0.047554315283061754,1242.18217873851,17911.50116225384
3.5417708854427215,906.0395517894882,905.627207574045,0.11946733883138462,0.0,0.20037518420650108,0.19713670043248052,0.04755355903298427,1242.0790723973585,17920.38431804132
3.551775887943972,906.1433699141073,905.70689899659,0.11994293478380076,0.0,0.2005221659075357,0.1969892392719137,0.047552801146265984,1241.975813714448,17929.260402783253
3.5617808904452226,906.2489145047415,905.7883560166491,0.12041923388118912,0.0,0.20066936469561666,0.1968415599737123,0.04755204159900446,1241.872402073003,17938.12945566514
3.571785892946473,906.3561832130756,905.8716132920836,0.12089623895752864,0.0,0.20081678143112397,0.19669366166201446,0.04755128036673203,1241.7688368467834,17946.991515734007
3.5817908954477238,906.4651713024691,905.9567007159827,0.12137395288031637,0.0,0.20096441698443201,0.19654554345064032,0.04755051742446958,1241.665117402017,17955.846621860335
3.5917958979489746,906.5758718054911,906.0436435044184,0.12185237854150342,0.0,0.20111227223314215,0.19639720444589343,0.04754975274678047,1241.561243099395,17964.694812702775
3.601800900450225,906.6882756855858,906.1324623262173,0.12233151884829675,0.0,0.20126034805927262,0.19624864374940457,0.047548986307823664,1241.4572132960875,17973.536126675644
3.6118059029514757,906.8023719984983,906.2231734633333,0.12281137671386888,0.0,0.20140864534641859,0.19609986046100436,0.04754821808140514,1241.3530273477797,17982.370601919032
3.621810905452726,906.9181480521258,906.3157889959749,0.12329195504794313,0.0,0.20155716497687184,0.1959508536816345,0.04754744804102748,1241.2486846107386,17991.19827627128
3.631815907953977,907.0355895656202,906.4103170127621,0.12377325674726056,0.0,0.20170590782870226,0.19580162251629715,0.04754667615993765,1241.1441844438962,18000.019187244303
3.6418209104552277,907.1546808253398,906.5067618388144,0.12425528468596111,0.0,0.20185487477281078,0.1956521660770304,0.047545902411172646,1241.0395262109575,18008.8333720017
3.651825912956478,907.2754048344633,906.6051242714685,0.12473804170583733,0.0,0.20200406666994025,0.19550248348592458,0.04754512676760242,1240.9347092825305,18017.640867339225
3.661830915457729,907.3977434561307,906.7054018204544,0.12522153060637803,0.0,0.20215348436761948,0.19535257387820398,0.047544349201970156,1240.8297330383016,18026.44170966724
3.6718359179589792,907.5216775507488,906.8075889526225,0.12570575413459678,0.0,0.20230312869703748,0.1952024364053763,0.04754356968693019,1240.724596869256,18035.2359349957
3.68184092046023,907.647187106716,906.9116773379582,0.12619071497465414,0.0,0.20245300046985215,0.19505207023844626,0.047542788195083,1240.61930017994,18044.023578921613
3.691845922961481,907.7742513626226,907.017656089163,0.12667641573712565,0.0,0.20260310047488628,0.1949014745712403,0.047542004699007705,1240.5138423908008,18052.80467661825
3.701850925462731,907.9028489214419,907.1255119940585,0.1271628589477918,0.0,0.20275342947467298,0.19475064862387953,0.047541219171291754,1240.4082229406265,18061.579262826002
3.711855927963982,908.0329578572632,907.2352297411853,0.12765004703591287,0.0,0.20290398820183886,0.1945995916464141,0.047540431584558174,1240.3024412890964,18070.34737184502
3.7218609304652324,908.1645558146107,907.346792138079,0.12813798232201623,0.0,0.2030547773553345,0.19444830292260845,0.04753964191149035,1240.1964969194346,18079.109037530037
3.731865932966483,908.2976200994443,907.4601803171704,0.12862666700491987,0.0,0.20320579759642474,0.19429678177396487,0.047538850124854225,1240.0903893412299,18087.86429328632
3.741870935467734,908.432127762568,907.575373929961,0.12911610314782582,0.0,0.20335704954438905,0.19414502756403595,0.047538056197518476,1239.9841180934523,18096.613172066765
3.7518759379689843,908.5680556759069,907.6923513300804,0.12960629266337995,0.0,0.20350853377189912,0.19399303970305837,0.04753726010247248,1239.8776827476952,18105.355706370225
3.761880940470235,908.7053806018747,907.8110897460006,0.13009723729779418,0.0,0.20366025080010378,0.19384081765287817,0.047536461812842115,1239.7710829116163,18114.091928241534
3.7718859429714855,908.844079255701,907.9315654405557,0.13058893861358456,0.0,0.20381220109328194,0.19368836093230626,0.04753566130190373,1239.6643182326784,18122.821869272226
3.7818909454727363,908.9841283613671,908.0537538583998,0.1310813979707028,0.0,0.20396438505299647,0.19353566912297265,0.0475348585430964,1239.557388402236,18131.545560601953
3.791895947973987,909.1255047015586,908.1776297621161,0.13157461650584426,0.0,0.20411680301167992,0.19338274187574725,0.04753405351003266,1239.450293160016,18140.263032920575
3.8019009504752375,909.2681851616858,908.3031673579792,0.13206859511014069,0.0,0.2042694552257178,0.19322957891766251,0.04753324617650743,1239.3430322989461,18148.97431647162
3.8119059529764883,909.4121467683532,908.4303404101296,0.13256333440456872,0.0,0.20442234186782143,0.19307618005954516,0.04753243651650563,1239.2356056704764,18157.67944105604
3.8219109554777386,909.5573667227478,908.5591223442439,0.13305883471276073,0.0,0.20457546301859367,0.19292254520445468,0.04753162450420867,1239.1280131904632,18166.37843603631
3.8319159579789894,909.7038224293058,908.6894863414377,0.1335550960308127,0.0,0.20472881865716153,0.19276867435705408,0.04753081011399983,1239.0202548456994,18175.07133034079
3.8419209604802402,909.8514915194372,908.8214054230647,0.13405211799446554,0.0,0.2048824086509922,0.19261456763379642,0.04752999332046831,1238.912330701015,18183.758152469127
3.8519259629814906,910.0003518709574,908.9548525262408,0.13454989984269744,0.0,0.20503623274459462,0.19246022527422535,0.047529174098412424,1238.80424090715,18192.438930497676
3.8619309654827414,910.1503816235213,909.0898005709311,0.13504844037725436,0.0,0.20519029054695923,0.19230564765353672,0.04752835242284204,1238.695985709508,18201.113692085022
3.8719359679839918,910.3015591903438,909.2262225192763,0.13554773791742844,0.0,0.20534458151752255,0.19215083529661534,0.047527528268980414,1238.5875654579352,18209.7824644774
3.8819409704852426,910.453863265775,909.3640914273581,0.13604779025068112,0.0,0.2054991049508405,0.19199578889336213,0.04752670161226499,1238.4789806173994,18218.445274514896
3.891945972986493,910.6072728294153,909.5033804898086,0.1365485945777869,0.0,0.20565385995956095,0.1918405093157217,0.04752587242834779,1238.3702317798504,18227.102148637467
3.9019509754877437,910.7617671469538,909.6440630778656,0.1370501474517405,0.0,0.2058088454554598,0.19168499763664631,0.0475250406930953,1238.261319677432,18235.75311289088
3.9119559779889945,910.9173257678852,909.7861127714168,0.13755244470933017,0.0,0.20596406012820048,0.19152925515133615,0.04752420638258817,1238.152245197279,18244.398192932244
3.921960980490245,911.0739285195787,909.9295033848605,0.13805548139623525,0.0,0.2061195024220824,0.19137328340049026,0.04752336947312013,1238.0430093977104,18253.037414036084
3.9319659829914957,911.231555498255,910.0742089873752,0.13855925168392846,0.0,0.20627517051024585,0.19121708419610078,0.047522529941196864,1237.9336135262022,18261.670801100157
3.941970985492746,911.3901870569712,910.2202039180377,0.13906374877712743,0.0,0.20643106226594246,0.19106065965018168,0.047521687763534555,1237.824059039396,18270.29837865089
3.951975987993997,911.5498037906025,910.3674627961465,0.1395689648101449,0.0,0.20658717523036055,0.19090401220694253,0.04752084291705858,1237.7143476255128,18278.9201708483
3.9619809904952477,911.7103865173099,910.5159605263585,0.14007489073328505,0.0,0.20674350657735951,0.19074714467805307,0.04751999537890177,1237.6044812289174,18287.536201491173
3.971985992996498,911.8719162568119,910.6656722991636,0.14058151618721573,0.0,0.20690005307447237,0.19059006028163958,0.04751914512640266,1237.4944620772835,18296.146494021847
3.981990995497749,912.0343742054848,910.8165735870291,0.14108882936323522,0.0,0.2070568110395294,0.19043276268566006,0.04751829213710386,1237.3842927118087,18304.751071530456
3.991995997998999,912.1977417080698,910.9686401363439,0.14159681684708028,0.0,0.2072137762921734,0.19027525605638812,0.0475174363887507,1237.273976020988,18313.349956758477
4.00200100050025,912.3620002255653,911.1218479547018,0.14210546344771205,0.0,0.20737094410071166,0.19011754511156048,0.04751657785928969,1237.1635152776375,18321.943172102223
4.012006003001501,912.5271312993875,911.2761732938453,0.14261475200890242,0.0,0.20752830912362868,0.18995963517886266,0.047515716526867306,1237.0529141796346,18330.530739615853
4.022011005502751,912.6931165116672,911.4315926285004,0.14312466320024067,0.0,0.2076858653447116,0.18980153226080362,0.04751485236982896,1236.9421768951124,18339.11268101364
4.0320160080040015,912.8599374412481,911.5880826309802,0.14363517528442812,0.0,0.20784360600081495,0.18964324310695055,0.047513985366718574,1236.8313081127776,18347.68901767127
4.042021010505253,913.027575615097,911.7456201411469,0.1441462638625641,0.0,0.20800152350279386,0.1894847752929952,0.04751311549627825,1236.7203130969908,18356.259770626864
4.052026013006503,913.196012455052,911.9041821318342,0.14465790159579825,0.0,0.20815960934910127,0.18932613730715708,0.04751224273744847,1236.6091977479562,18364.824960581285
4.0620310155077535,913.3652292195326,912.0637456698066,0.14517005789807477,0.0,0.20831785403041211,0.18916733864555954,0.04751136706936865,1236.4979686681625,18373.384607897446
4.072036018009005,913.5352069395741,912.2242878719048,0.1456826985962301,0.0,0.20847624692411398,0.18900838991774,0.04751048847137872,1236.3866332358857,18381.93873259847
4.082041020510255,913.7059263490568,912.385785856071,0.14619578555946042,0.0,0.20863477617929,0.1888493029616684,0.04750960692302099,1236.2751996853121,18390.487354365065
4.092046023011505,913.8773678091496,912.5482166872841,0.146709276298526,0.0,0.20879342859230782,0.18869009096815986,0.04750872240404281,1236.1636771932092,18399.030492532056
4.102051025512757,914.049511226214,912.711557318233,0.1472231235269957,0.0,0.20895218947062616,0.18853076861707022,0.0475078348944,1236.0520759738033,18407.56816608358
4.112056028014007,914.2223359624605,912.8757845242267,0.14773727468096925,0.0,0.20911104248371232,0.18837135222638157,0.0475069443742614,1235.9404073826383,18416.100393646753
4.122061030515257,914.3958207394321,913.0408748322005,0.14825167139999532,0.0,0.20926996950191512,0.18821185991333267,0.04750605082401441,1235.8286840288235,18424.62719348411
4.132066033016508,914.5699435349093,913.2068044440986,0.14876624897436241,0.0,0.2094289504248995,0.18805231176598824,0.04750515422427129,1235.7169198945555,18433.14858348497
4.142071035517759,914.7446814720508,913.3735491541335,0.14928093574867338,0.0,0.20958796299651156,0.18789273002837914,0.04750425455587681,1235.6051304640946,18441.664581154993
4.152076038019009,914.9200107003131,913.5410842595045,0.14979565248034363,0.0,0.20974698260565192,0.18773313929963445,0.04750335179991744,1235.4933328624866,18450.17520360383
4.16208104052026,915.0959062685882,913.7093844646778,0.15031031165781122,0.0,0.20990598207464317,0.18757356674562078,0.047502445937731744,1235.381546002999,18458.680467531063
4.172086043021511,915.2723419925837,913.8784237803713,0.15082481679334486,0.0,0.2100649314397125,0.187414042318467,0.04750153695092217,1235.2697907400513,18467.1803892107
4.182091045522761,915.4492903149742,914.0481754164614,0.15133906167948954,0.0,0.21022379772018718,0.18725459898737737,0.04750062482136847,1235.1580900300091,18475.674984473542
4.192096048024012,915.6267221587638,914.218611668901,0.15185292961405417,0.0,0.2103825446779256,0.18709527297921,0.04749970953124299,1235.046469098779,18484.164268687226
4.202101050525263,915.8046067751279,914.3897038012816,0.15236629260378465,0.0,0.21054113257013182,0.18693610402567348,0.04749879106302789,1234.9349556140178,18492.648256734014
4.212106053026513,915.9829115904137,914.5614219239225,0.15287901057843148,0.0,0.21069951790539668,0.18677713560729728,0.04749786939953382,1234.823579855092,18501.126962987088
4.222111055527764,916.1616020510985,914.733734869741,0.1533909306073724,0.0,0.21085765320053193,0.18661841519661093,0.047496944523920746,1234.7123748824868,18509.600401284453
4.232116058029014,916.3406414690312,914.9066100681752,0.1539018861359913,0.0,0.2110154867435369,0.18645999449519185,0.04749601641972088,1234.601376702944,18518.06858490034
4.242121060530265,916.5199908698737,915.0800134188441,0.1544116962627561,0.0,0.21117296236919864,0.1863019296580814,0.047495085070863974,1234.4906244258011,18526.531526514205
4.252126063031516,916.6996088533386,915.253909170563,0.1549201651121806,0.0,0.21133001926445433,0.18614428148843892,0.04749415046170411,1234.3801603985962,18534.98923817862
4.262131065532766,916.8794514651604,915.428259805559,0.15542708130437585,0.0,0.21148659180373663,0.18598711560221534,0.04749321257704854,1234.2700303217875,18543.441731285042
4.272136068034017,917.0594720858021,915.6030259319826,0.15593221755491374,0.0,0.21164260942476815,0.1858305025523777,0.0474922714021888,1234.1602833352972,18551.88901652763
4.282141070535268,917.2396213411826,915.7781661879857,0.15643533044058966,0.0,0.2117979965558533,0.18567451790163872,0.04749132692293397,1234.050972069181,18560.331103865326
4.292146073036518,917.4198470478284,915.9536371659447,0.15693616040643837,0.0,0.21195267261805648,0.18551924222030033,0.047490379125644744,1233.942152642128,18568.76800248413
4.302151075537768,917.6000941936744,916.1293933575296,0.15743443202273796,0.0,0.212106552104979,0.1853647610064987,0.0474894279972691,1233.833884605907,18577.19972075871
4.31215607803902,917.7803049611738,916.3053871241015,0.15792985453357908,0.0,0.2122595447530413,0.18521116451594613,0.047488473525379105,1233.7262308267657,18585.626266213894
4.32216108054027,917.9604187992422,916.4815686968382,0.15842212273760797,0.0,0.21241155581487478,0.18505854748856265,0.047487515698209075,1233.6192572949965,18594.047645486346
4.33216608304152,918.1403725562199,916.6578862159205,0.15891091826678955,0.0,0.21256248645626394,0.18490700875155777,0.047486554504692705,1233.5130328484393,18602.463864289206
4.3421710855427715,918.320100673635,916.8342858089253,0.1593959112592739,0.0,0.21271223427542238,0.1847566507001778,0.047485589934500076,1233.4076288107606,18610.87492737914
4.352176088044022,918.499535444228,917.0107117114312,0.15987676244184099,0.0,0.2128606939494075,0.18460757865131402,0.04748462197807382,1233.3031185411653,18619.280838526352
4.362181090545272,918.6786073370098,917.18710643249,0.16035312563233647,0.0,0.2130077580109063,0.18445990006673926,0.0474836506266643,1233.1995768932904,18627.68160048824
4.3721860930465235,918.8572453924671,917.3634109695436,0.16082465065933085,0.0,0.21315331775453286,0.18431372364683019,0.047482675872361255,1233.0970795838725,18636.07721498983
4.382191095547774,919.0353776802549,917.5395650687169,0.1612909866417392,0.0,0.21329726425486387,0.18416915831255007,0.04748169770812233,1232.9957024835824,18644.46768271049
4.392196098049024,919.2129318128666,917.7155075275358,0.16175178557528277,0.0,0.21343948947972352,0.18402631209217957,0.047480716127798056,1232.8955208414989,18652.853003277236
4.402201100550275,919.3898355081988,917.8911765369096,0.1622067061675059,0.0,0.21357988748062592,0.18388529093088796,0.04747973112615314,1232.7966084558382,18661.2331752652
4.412206103051526,919.5660171879682,918.0665100569569,0.16265541781047663,0.0,0.2137183556259583,0.18374619745755918,0.047478742698881415,1232.699036814905,18669.608196207795
4.422211105552776,919.7414065943673,918.2414462161631,0.16309760456971995,0.0,0.21385479583920664,0.18360912974657218,0.047477750842614984,1232.6028742345304,18677.97806261588
4.4322161080540265,919.9159354093703,918.4159237244563,0.16353296908302975,0.0,0.2139891158092091,0.18347418010754957,0.047476755554927814,1232.508185014995,18686.342770005213
4.442221110555278,920.0895378620065,918.5898822916255,0.16396123626638026,0.0,0.2141212301405348,0.18334143393497776,0.04747575683433382,1232.4150286396618,18694.70231293206
4.452226113056528,920.2621513008897,918.7632630380574,0.16438215666560366,0.0,0.2142510613939062,0.1832109686677789,0.04747475468027759,1232.3234590502032,18703.056685038267
4.4622311155577785,920.4337167137088,918.9360088854339,0.16479550934037734,0.0,0.2143785409814466,0.18308285289405288,0.047473749093118515,1232.23352402296,18711.405879104354
4.47223611805903,920.6041791830063,919.108064919238,0.165201104222991,0.0,0.21450360989889497,0.18295714561884951,0.04747274007410954,1232.1452646588698,18719.74988710879
4.48224112056028,920.7734882687448,919.2793787161552,0.1655987838973597,0.0,0.2146262192778588,0.18283389571189884,0.047471727625370906,1232.058714998759,18728.088700292705
4.4922461230615305,920.9415983024883,919.4499006256219,0.16598842470838962,0.0,0.21474633073020025,0.18271314156320495,0.04747071174985819,1231.9739017834345,18736.422309229863
4.502251125562781,921.108468587277,919.6195839992376,0.16636993718496923,0.0,0.21486391647936112,0.18259491095169716,0.04746969245132543,1231.8908443621983,18744.7507039002
4.512256128064032,921.2740635099146,919.7883853695577,0.16674326584497826,0.0,0.2149789592998579,0.18247922110571052,0.04746866973428515,1231.8095547349883,18753.073873764777
4.5222611305652824,921.4383525691281,919.9562645785057,0.16710838842214132,0.0,0.21509145227730678,0.18236607894293325,0.047467643603966,1231.7300377195413,18761.391807841184
4.532266133066533,921.6013103197306,920.1231848529779,0.16746531453723917,0.0,0.21520139839596758,0.18225548148283488,0.047466614066267725,1231.6522912387056,18769.704494778744
4.542271135567784,921.7629162392935,920.2891128287331,0.16781408388254473,0.0,0.2153088099751816,0.18214741641019816,0.0474655811277142,1231.5763067130122,18778.01192293226
4.552276138069034,921.9231545368218,920.4540185329613,0.16815476406499172,0.0,0.2154137079998724,0.18204186274458894,0.04746454479540631,1231.502069527042,18786.31408043266
4.562281140570285,922.0820139134427,920.6178753304067,0.1684874481864404,0.0,0.2155161213694336,0.18193879159143841,0.047463505076975,1231.429559552645,18794.61095525427
4.572286143071536,922.2394872827994,920.7806598360331,0.16881225222770282,0.0,0.21561608608569657,0.18183816695404595,0.04746246198053466,1231.3587517145918,18802.902535278095
4.582291145572786,922.3955714596663,920.9423517974458,0.16912931231080644,0.0,0.21571364440309734,0.18173994658338297,0.04746141551463684,1231.2896165825553,18811.188808350656
4.592296148074037,922.5502668358787,921.1029339594086,0.16943878196324658,0.0,0.2158088439794562,0.1816440828272852,0.047460365688225904,1231.2221209626668,18819.469762337834
4.602301150575287,922.7035770507646,921.2623919147611,0.16974082943341887,0.0,0.21590173704264184,0.1815505234637616,0.04745931251059632,1231.1562284780016,18827.745385173792
4.612306153076538,922.8555086619803,921.4207139450308,0.1700356350996608,0.0,0.21599237958628864,0.18145921250525132,0.04745825599135188,1231.0919001288269,18836.0156649051
4.622311155577789,923.0060708205591,921.5778908519188,0.17032338900825714,0.0,0.2160808306055429,0.18137009096285245,0.04745719614036649,1231.0290948249603,18844.28058972974
4.632316158079039,923.1552749618194,921.7339157891671,0.17060428859887503,0.0,0.21616715139098772,0.18128309755237404,0.04745613296774746,1230.967769877603,18852.540148031432
4.64232116058029,923.3031345139611,921.8887840965175,0.17087853662459335,0.0,0.2162514048829706,0.18119816933998675,0.04745506648380101,1230.9078814490927,18860.794328409618
4.652326163081541,923.4496646259475,922.0424931373286,0.17114633927217485,0.0,0.21633365508808766,0.18111524232571807,0.04745399669899994,1230.84938495936,18869.043119705366
4.662331165582791,923.5948819141902,922.195042138661,0.17140790448667648,0.0,0.21641396655909526,0.1810342519635214,0.04745292362395318,1230.792235448195,18877.286511023136
4.672336168084042,923.738804232796,922.3464320397451,0.17166344050710353,0.0,0.21649240394033262,0.18095513361583584,0.047451847269377706,1230.7363878918854,18885.52449174895
4.682341170585293,923.8814504660448,922.4966653487015,0.17191315459814313,0.0,0.21656903157400914,0.18087782294728205,0.047450767646072416,1230.6817974774494,18893.757051565688
4.692346173086543,924.0228403420587,922.6457460076897,0.17215725196397075,0.0,0.21664391316301035,0.18080225626184115,0.04744968476489391,1230.628419837502,18901.98418046553
4.702351175587793,924.1629942656327,922.7936792642706,0.1723959348385519,0.0,0.21671711148848985,0.18072837078524873,0.047448598636734084,1230.576211246956,18910.20586875943
4.712356178089045,924.3019331710923,922.9404715522661,0.17262940173491495,0.0,0.21678868817680869,0.1806561048980421,0.04744750927249939,1230.5251287853482,18918.42210708442
4.722361180590295,924.4396783930981,923.0861303813775,0.1728578468347633,0.0,0.21685870351003855,0.1805853983250453,0.0474464166830919,1230.4751304688173,18926.632886409116
4.732366183091545,924.5762515536153,923.2306642351198,0.17308145950081022,0.0,0.2169272162745609,0.18051619228675853,0.04744532087939167,1230.42617535555,18934.838198037596
4.742371185592797,924.7116744632679,923.3740824749324,0.17330042390870143,0.0,0.21699428364678822,0.18044842961362711,0.04744422187224059,1230.3782236253624,18943.03803361138
4.752376188094047,924.8459690363857,923.5163952521557,0.17351491877595185,0.0,0.2170599611090007,0.18038205483019515,0.047443119672427654,1230.3312366383088,18951.232385110114
4.762381190595297,924.9791572180113,923.6576134272063,0.1737251171727689,0.0,0.21712430239060276,0.18031701421384036,0.04744201429067535,1230.2851769755798,18959.421244851328
4.7723861930965485,925.1112609212921,923.7977484953662,0.17393118640095206,0.0,0.2171873594305128,0.18025325583237678,0.04744090573762712,1230.240008465684,18967.604605489476
4.782391195597799,925.2423019742449,923.936812517571,0.17413328794245378,0.0,0.21724918236117696,0.18019072956003326,0.04743979402383598,1230.1956961955632,18975.78246001369
4.792396198099049,925.3723020748644,924.0748180569813,0.17433157745863437,0.0,0.21730981950832096,0.18012938707769552,0.047438679159754166,1230.1522065107504,18983.95480174487
4.8024012006003,925.5012827533501,924.2117781209253,0.17452620482911452,0.0,0.21736931740299384,0.1800691818608561,0.04743756115572354,1230.1095070069596,18992.121624332438
4.812406203101551,925.6292653403509,924.3477061076712,0.17471731422159073,0.0,0.21742772080322478,0.1800100691579522,0.04743644002196692,1230.0675665149872,19000.28292175075
4.822411205602801,925.7562709408614,924.4826157569814,0.17490504419722328,0.0,0.21748507272672235,0.17995200595766117,0.04743531576858005,1230.0263550779166,19008.43868829482
4.832416208104052,925.8823204128863,924.6165211047354,0.17508952783855164,0.0,0.21754141449056813,0.17989495094920252,0.047434188405524644,1229.9858439234551,19016.58891857564
4.842421210605303,926.0074343500181,924.7494364414155,0.17527089289148962,0.0,0.21759678575528174,0.17983886447826894,0.047433057942621724,1229.9460054332249,19024.733607515427
4.852426213106553,926.1316330672411,924.8813762740122,0.17544926191692853,0.0,0.2176512245718686,0.1797837084999743,0.04743192438954567,1229.9068131099762,19032.872750342936
4.862431215607804,926.2549365899856,925.0123552907398,0.17562475245746448,0.0,0.21770476743356437,0.1797294465271065,0.04743078775581891,1229.8682415415328,19041.00634258822
4.872436218109055,926.3773646458461,925.1423883286101,0.175797477211785,0.0,0.21775744932995642,0.17967604357600217,0.047429648050807224,1229.830266363079,19049.13438007728
4.882441220610305,926.4989366582809,925.2714903437516,0.17596754420956273,0.0,0.21780930380126468,0.17962346611226396,0.04742850528371545,1229.7928642193392,19057.25685892671
4.8924462231115555,926.6196717419248,925.3996763841368,0.1761350569852356,0.0,0.21786036299227673,0.17957168199682222,0.04742735946358351,1229.756012726996,19065.37377553859
4.902451225612806,926.7395886996977,925.5269615644002,0.17630011475565707,0.0,0.21791065770748536,0.17952066043079593,0.04742621059928298,1229.719690436274,19073.48512659503
4.912456228114057,926.85870602143,925.6533610427092,0.17646281259854224,0.0,0.21796021746647334,0.1794703719001055,0.04742505869951431,1229.6838767923523,19081.59090905263
4.9224612306153075,926.9770418833824,925.7788899995877,0.176623241625145,0.0,0.21800907055750873,0.17942078812187642,0.04742390377280403,1229.6485520980216,19089.691120137028
4.932466233116558,927.0946141484878,925.9035636184353,0.17678148914720898,0.0,0.2180572440893624,0.1793718819926195,0.04742274582750248,1229.6136974775818,19097.785757337777
4.942471235617809,927.2114403675528,926.0273970676186,0.17693763884220026,0.0,0.2181047640425933,0.17932362753694486,0.04742158487178175,1229.5792948411113,19105.874818402986
4.9524762381190595,927.3275377813676,926.1504054840838,0.1770917709165806,0.0,0.21815165532022587,0.1792759998568834,0.0474204209136341,1229.54532684916,19113.958301333856
4.96248124062031,927.4429233231333,926.2726039583597,0.17724396226114064,0.0,0.2181979417959633,0.17922897508367272,0.04741925396087067,1229.5117768791588,19122.036204379434
4.972486243121561,927.5576136211487,926.394007520772,0.1773942865992528,0.0,0.2182436463602027,0.17918253033174092,0.04741808402112016,1229.478628993362,19130.1085260316
4.982491245622811,927.6716250019596,926.5146311288212,0.1775428146308162,0.0,0.2182887909647145,0.17913664365402687,0.04741691110182789,1229.445867907718,19138.175265019974
4.992496248124062,927.784973494126,926.6344896557524,0.1776896141736453,0.0,0.21833339666652796,0.17909129399809431,0.04741573521025529,1229.413478961297,19146.23642030675
5.002501250625312,927.8976748320018,926.7535978801052,0.177834750296717,0.0,0.21837748366929002,0.17904646116477255,0.04741455635347946,1229.3814480874757,19154.29199108163
5.012506253126563,928.0097444595496,926.871970476134,0.17797828544648453,0.0,0.2184210713624722,0.1790021257689494,0.04741337453839274,1229.3497617866262,19162.341976757143
5.022511255627814,928.1211975343208,926.9896220050844,0.17812027956803478,0.0,0.21846417835897738,0.17895826920196453,0.04741218977170259,1229.3184070999116,19170.386376963812
5.032516258129064,928.2320489319195,927.106566907435,0.17826079022387767,0.0,0.21850682253201148,0.1789148735947376,0.04741100205993179,1229.2873715836047,19178.425191545313
5.042521260630315,928.3423132503299,927.22281949583,0.17839987270532773,0.0,0.21854902104965615,0.17887192178319572,0.047409811409418696,1229.256643284999,19186.458420553765
5.052526263131566,928.4520048141709,927.3383939486382,0.17853758013772877,0.0,0.21859079040753063,0.17882939727561217,0.0474086178263175,1229.226210719657,19194.486064245226
5.062531265632816,928.5611376789502,927.453304304124,0.17867396358052082,0.0,0.21863214645985227,0.1787872842215456,0.04740742131659868,1229.1960628497716,19202.508123075335
5.072536268134067,928.6697256357204,927.5675644554292,0.17880907212535066,0.0,0.2186731044498906,0.17874556738138686,0.04740622188604973,1229.1661890629503,19210.52459769472
5.082541270635318,928.7777822155489,927.6811881460346,0.17894295298789822,0.0,0.21871367903847058,0.17870423209785605,0.04740501954027587,1229.1365791523604,19218.5354889446
5.092546273136568,928.8853206938683,927.7941889656774,0.17907565159445538,0.0,0.21875388433084714,0.17866326426912846,0.04740381428470101,1229.107223298006,19226.54079785263
5.102551275637818,928.992354094721,927.9065803466807,0.17920721166374678,0.0,0.2187937339021028,0.17862265032343744,0.0474026061245683,1229.0781120490378,19234.540525628843
5.11255627813907,929.0988951953608,928.0183755609802,0.1793376752872242,0.0,0.21883324082207206,0.17858237719415102,0.04740139506494149,1229.0492363063884,19242.534673661376
5.12256128064032,929.20495653065,928.1295877174896,0.1794670830041363,0.0,0.21887241767867716,0.17854243229643643,0.04740018111067245,1229.0205873065418,19250.52324351242
5.13256628314157,929.3105509794165,928.2402297092209,0.1795954780983089,0.0,0.21891127659698068,0.17850280350821812,0.04739896558125016,1228.9921556924046,19258.506236915993
5.142571285642822,929.4156927768358,928.3503142632416,0.1797229132764013,0.0,0.2189498292241664,0.17846347918531985,0.047397753199350065,1228.9639300693086,19266.48365579506
5.152576288144072,929.5203940973568,928.4598542497905,0.1798494258272151,0.0,0.2189880867656326,0.17842444812532765,0.0473965443431792,1228.9359023765232,19274.455502251894
5.162581290645322,929.6246667080608,928.5688623806159,0.17997505045482345,0.0,0.2190260600311475,0.1783856995213474,0.047395338983915423,1228.9080651121435,19282.42177854993
5.172586293146573,929.7285221495949,928.6773511864288,0.18009982065128075,0.0,0.21906375945307627,0.17834722294377653,0.047394137093613196,1228.8804110362546,19290.38248710978
5.182591295647824,929.8319717402815,928.7853330164464,0.1802237687499238,0.0,0.21910119510293963,0.17830900832374694,0.04739293864519253,1228.8529331594077,19298.337630505655
5.192596298149074,929.935026580489,928.8928200384337,0.18034692597765345,0.0,0.21913837670765743,0.17827104593688167,0.04739174361242647,1228.8256247313145,19306.287211461742
5.202601300650325,930.0376975568781,928.9998242389208,0.1804693225042409,0.0,0.21917531366486878,0.17823332638797665,0.047390551969929195,1228.7984792301872,19314.231232848608
5.212606303151576,930.1399953464806,929.1063574235333,0.18059098748866098,0.0,0.21921201505732862,0.17819584059660476,0.04738936369314431,1228.7714903527194,19322.169697679827
5.222611305652826,930.241930420578,929.2124312173805,0.1807119491225401,0.0,0.21924848966640764,0.1781585797836172,0.04738817875833395,1228.7446520046924,19330.102609108693
5.232616308154077,930.3435130487916,929.3180570658549,0.18083223467270468,0.0,0.21928474598531492,0.17812153545792195,0.047386997142566854,1228.7179582917745,19338.0299704249
5.242621310655328,930.4447533030957,929.4232462355824,0.18095187052153994,0.0,0.21932079223164014,0.17808469940394236,0.047385818823706495,1228.6914035107975,19345.95178505123
5.252626313156578,930.5456610616604,929.5280098154227,0.18107088220487597,0.0,0.21935663635912855,0.178048063669844,0.04738464378039986,1228.664982141561,19353.86805654042
5.262631315657829,930.6462460124978,929.6323587174736,0.18118929444747442,0.0,0.21939228606870914,0.17801162055650704,0.04738347199206678,1228.6386888391644,19361.778788572177
5.272636318159079,930.7465176572698,929.7363036784004,0.18130713119773548,0.0,0.21942774881928298,0.1779753626067392,0.04738230343888854,1228.6125184264986,19369.683984950098
5.28264132066033,930.8464853150675,929.8398552609133,0.18142441566082676,0.0,0.21946303183802124,0.17793928259497924,0.04738113810179637,1228.5864658870867,19377.58364959865
5.292646323161581,930.9461581260116,929.9430238552394,0.18154117032970565,0.0,0.2194981421300088,0.1779033735176539,0.04737997596246066,1228.5605263583739,19385.477786560285
5.302651325662831,931.0455450546804,930.0458196805706,0.18165741701426338,0.0,0.21953308648730377,0.17786762858411997,0.04737881700328059,1228.534695125429,19393.36639999268
5.312656328164082,931.1446548936367,930.1482527867474,0.18177317686966565,0.0,0.2195678714977492,0.17783204120785379,0.04737766120737343,1228.5089676148143,19401.249494165928
5.3226613306653325,931.2434962669732,930.2503330561025,0.1818884704236298,0.0,0.21960250355345373,0.17779660499797126,0.04737650855856345,1228.4833393886909,19409.127073459782
5.332666333166583,931.342077633687,930.3520702052574,0.18200331760196306,0.0,0.21963698885873312,0.1777613137512882,0.047375359041371565,1228.4578061392954,19416.999142360968
5.342671335667834,931.440407290886,930.4534737868735,0.18211773775253903,0.0,0.21967133343756504,0.17772616144486597,0.04737421264100544,1228.4323636837564,19424.865705460652
5.3526763381690845,931.5384933770531,930.5545531915637,0.18223174966854438,0.0,0.21970554314081864,0.17769114222878357,0.0473730693433494,1228.4070079590704,19432.726767451928
5.362681340670335,931.636343875363,930.6553176499751,0.18234537161100786,0.0,0.21973962365326144,0.17765625041913158,0.047371929134953854,1228.3817350172283,19440.58233312721
5.372686343171585,931.733966616834,930.7557762347956,0.18245862132990137,0.0,0.21977358050012244,0.17762148049145052,0.04737079200302546,1228.356541020656,19448.432407375825
5.3826913456728365,931.8313692833277,930.855937862702,0.18257151608395908,0.0,0.21980741905325638,0.17758682707456735,0.04736965793541768,1228.3314222379288,19456.27699518166
5.392696348174087,931.9285594105626,930.955811296406,0.18268407265981002,0.0,0.219841144537095,0.17755228494464542,0.04736852692062136,1228.3063750396334,19464.11610162085
5.402701350675337,932.0255443912118,931.0554051468746,0.18279630739067385,0.0,0.2198747620344642,0.17751784901936865,0.04736739894775469,1228.2813958943295,19471.94973185945
5.412706353176588,932.1223314778359,931.154727875461,0.18290823617382834,0.0,0.21990827649201794,0.17748351435250856,0.047366274006553896,1228.2564813647716,19479.777891151163
5.422711355677839,932.2189277856912,931.2537877959703,0.18301987448710272,0.0,0.21994169272536992,0.17744927612879358,0.04736515208736431,1228.2316281043425,19487.600584835203
5.432716358179089,932.3153402955031,931.3525930767623,0.1831312374046581,0.0,0.2199750154240039,0.17741512965899994,0.04736403318113156,1228.2068328536438,19495.41781833421
5.44272136068034,932.4115758563526,931.451151743041,0.18324233961255898,0.0,0.22000824915611952,0.17738107037510695,0.04736291727939216,1228.1820924371289,19503.22959715207
5.452726363181591,932.5076411884075,931.549471679041,0.18335319542333947,0.0,0.22004139837316583,0.17734709382576444,0.04736180437426469,1228.1574037599532,19511.035926871868
5.462731365682841,932.6035428855388,931.6475606301473,0.18346381878973156,0.0,0.22007446741411377,0.17731319567202153,0.047360694458441384,1228.1327638050086,19518.836813153936
5.4727363681840915,932.6992874178761,931.7454262050059,0.18357422331777043,0.0,0.22010746050953522,0.1772793716832482,0.04735958752518,1228.1081696300882,19526.632261733914
5.482741370685343,932.7948811344911,931.8430758778225,0.1836844222798167,0.0,0.22014038178565695,0.1772456177330827,0.04735848356829488,1228.0836183650729,19534.422278420785
5.492746373186593,932.8903302659312,931.9405169905548,0.18379442862671583,0.0,0.2201732352681464,0.17721192979564687,0.047357382582148826,1228.0591072093014,19542.206869095
5.5027513756878434,932.9856409266569,932.0377567550393,0.1839042549993012,0.0,0.22020602488569269,0.17717830394196574,0.04735628456164509,1228.0346334290853,19549.986039706666
5.512756378189095,933.0808191173982,932.1348022550733,0.1840139137393346,0.0,0.22023875447341323,0.17714473633656225,0.04735518950221985,1228.0101943553425,19557.75979627382
5.522761380690345,933.175870727636,932.231660448678,0.18412341690041423,0.0,0.22027142777625033,0.1771112232340614,0.04735409739983396,1227.9857873812414,19565.528144880573
5.532766383191595,933.2708015379562,932.3283381702619,0.18423277625817938,0.0,0.2203040484521498,0.17707776097601283,0.04735300825096522,1227.9614099599928,19573.29109167547
5.542771385692847,933.3656172223132,932.4248421327179,0.18434200332000183,0.0,0.2203366200750788,0.17704434598787366,0.047351922052600984,1227.937059602757,19581.048642869766
5.552776388194097,933.4603233502029,932.5211789294515,0.1844511093341405,0.0,0.22036914613787734,0.177010974776158,0.04735083880223113,1227.9127338766632,19588.800804735867
5.562781390695347,933.5549253889494,932.6173550365739,0.18456010529890213,0.0,0.22040163005511224,0.17697764392558415,0.047349758497840455,1227.888430402831,19596.547583605694
5.572786393196598,933.6494287058915,932.7133768150125,0.18466900197127414,0.0,0.2204340751657664,0.17694435009638593,0.04734868113790147,1227.8641468545034,19604.288985869087
5.582791395697849,933.7438385704816,932.8092505125511,0.18477780987509354,0.0,0.22046648473578417,0.17691109002176827,0.047347606721367404,1227.8398809552812,19612.025017972308
5.592796398199099,933.838160156287,932.9049822657868,0.18488653930875734,0.0,0.2204988619604734,0.17687786050550613,0.04734653524766585,1227.815630477458,19619.75568641657
5.60280140070035,933.932398543096,933.0005781022296,0.18499520035293965,0.0,0.22053120996691053,0.17684465841954025,0.04734546671669166,1227.7913932403483,19627.480997756582
5.612806403201601,934.0265587189423,933.0960439423434,0.18510380287791897,0.0,0.22056353181622435,0.17681148070169417,0.0473444011288002,1227.7671671087096,19635.200958599067
5.622811405702851,934.1206455820493,933.1913856015075,0.1852123565504974,0.0,0.22059583050575243,0.1767783243535186,0.04734333848480096,1227.7429499912416,19642.915575601393
5.632816408204102,934.2146639426757,933.2866087918917,0.18532087084052154,0.0,0.22062810897107357,0.17674518643826004,0.04734227878595159,1227.7187398391798,19650.62485547026
5.642821410705353,934.3086185250448,933.3817191244499,0.18542935502740263,0.0,0.2206603700880404,0.17671206407882872,0.047341222033951365,1227.6945346448852,19658.328804960336
5.652826413206603,934.4025139692242,933.476722110873,0.18553781820636517,0.0,0.2206926166747278,0.1766789544558511,0.04734016823093504,1227.6703324404932,19666.027430872935
5.662831415707854,934.4963548329173,933.5716231654636,0.18564626929431932,0.0,0.22072485149326376,0.1766458548058397,0.04733911737946673,1227.646131296647,19673.720740054745
5.672836418209104,934.590145593169,933.6664276069213,0.18575471703541407,0.0,0.22075707725156088,0.17661276241946264,0.047338069482534544,1227.6219293212941,19681.40873939665
5.682841420710355,934.6838906481316,933.7611406602192,0.18586317000656696,0.0,0.2207892966050407,0.17657967463981958,0.047337024543544645,1227.5977246584941,19689.09143583248
5.692846423211606,934.777594318802,933.8557674584634,0.1859716366228014,0.0,0.22082151215829873,0.17654658886077787,0.047335982566315334,1227.5735154872634,19696.76883633779
5.702851425712856,934.8712608506755,933.9503130446702,0.1860801251422559,0.0,0.2208537264666669,0.17651350252541073,0.04733494355507163,1227.5493000204924,19704.44094792874
5.712856428214107,934.9648944153187,934.0447823734579,0.1861886436709299,0.0,0.2208859420376935,0.17648041312451773,0.04733390751444019,1227.5250765039218,19712.107777660967
5.722861430715358,935.0584991119831,934.1391803128023,0.18629720016738416,0.0,0.22091816133260997,0.17644731819515921,0.04733287444944387,1227.500843215125,19719.769332628486
5.732866433216608,935.1520789692096,934.2335116457976,0.1864058024473209,0.0,0.2209503867677598,0.1764142153192276,0.047331844365496346,1227.4765984625192,19727.42561996257
5.742871435717859,935.2456379463537,934.3277810723314,0.1865144581878811,0.0,0.2209826207159396,0.1763811021221072,0.04733081726839703,1227.4523405844363,19735.076646830727
5.7528764382191095,935.3391799350358,934.4219932106822,0.18662317493170752,0.0,0.22101486550766683,0.17634797627140733,0.04732979316432642,1227.428067948245,19742.72242043567
5.76288144072036,935.4327087606125,934.5161525991546,0.18673196009096618,0.0,0.22104712343243474,0.17631483547570762,0.047328772059841144,1227.4037789494816,19750.362948014306
5.77288644322161,935.5262281836584,934.6102636977351,0.18684082095127508,0.0,0.22107939673993882,0.17628167748333248,0.04732775396186897,1227.3794720110018,19757.998236836745
5.7828914457228615,935.619741901369,934.7043308896671,0.1869497646754146,0.0,0.22111168764123512,0.17624850008119342,0.04732673887770419,1227.3551455821778,19765.62829420534
5.792896448224112,935.7132535488983,934.7983584829522,0.18705879830681843,0.0,0.22114399830982967,0.1762153010937,0.0473257268150032,1227.3307981381454,19773.25312745375
5.802901450725362,935.8067667007,934.8923507118664,0.1871679287730177,0.0,0.22117633088275404,0.1761820783816853,0.04732471778178021,1227.306428179057,19780.872743946056
5.8129064532266135,935.9002848718924,934.9863117385138,0.18727716288903726,0.0,0.22120868746162556,0.17614882984134567,0.04732371178640243,1227.282034229351,19788.487151075813
5.822911455727864,935.9938115195491,935.0802456542983,0.18738650736059678,0.0,0.22124107011364727,0.176115553403242,0.047322708837585936,1227.2576148370588,19796.096356265192
5.832916458229114,936.0873500439322,935.1741564813327,0.18749596878713543,0.0,0.22127348087255214,0.1760822470313556,0.0473217089443916,1227.23316857315,19803.70036696415
5.8429214607303654,936.1809037897129,935.2680481738392,0.18760555366475898,0.0,0.22130592173952357,0.17604890872216847,0.047320712116221145,1227.2086940308968,19811.29919064958
5.852926463231616,936.2744760472282,935.3619246196008,0.18771526838919547,0.0,0.22133839468411867,0.17601553650374052,0.0473197183628128,1227.1841898252364,19818.892834824495
5.862931465732866,936.3680700536667,935.455789641334,0.18782511925856668,0.0,0.2213709016451341,0.17598212843484426,0.04731872769423744,1227.1596545921695,19826.481307017224
5.8729364682341165,936.4616889942058,935.5496469980066,0.18793511247601047,0.0,0.22140344453142524,0.1759486826041462,0.047317740120894874,1227.1350869881958,19834.064614780644
5.882941470735368,936.5553360031222,935.6435003861285,0.18804525415222934,0.0,0.221436025222702,0.1759151971294114,0.047316755653510234,1227.110485689763,19841.642765691442
5.892946473236618,936.6490141649457,935.7373534411024,0.18815555030804842,0.0,0.2214686455703288,0.17588167015670403,0.04731577430313007,1227.0858493927133,19849.215767349335
5.9029514757378685,936.7427265155522,935.8312097385032,0.18826600687684297,0.0,0.22150130739808263,0.17584809985962999,0.047314796081118715,1227.061176811759,19856.783627376368
5.91295647823912,936.8364760432062,935.9250727953026,0.1883766297068116,0.0,0.2215340125028637,0.17581448443862652,0.047313820999154904,1227.0364666799928,19864.34635341621
5.92296148074037,936.9302656895758,936.0189460710623,0.18848742456319117,0.0,0.2215667626553874,0.17578082212027082,0.04731284906922857,1227.0117177484076,19871.903953133457
5.9329664832416205,937.0240983507889,936.1128329691833,0.18859839713047455,0.0,0.22159955960087757,0.17574711115658706,0.0473118803036372,1226.9869287854176,19879.456434212963
5.942971485742872,937.1179768784365,936.2067368380954,0.18870955301453743,0.0,0.22163240505973175,0.17571334982438197,0.047310914714982506,1226.9620985763997,19887.003804359178
5.952976488244122,937.2119040805369,936.3006609723967,0.18882089774464883,0.0,0.22166530072814902,0.17567953642461692,0.04730995231616736,1226.9372259232575,19894.54607129549
5.962981490745372,937.3058827224546,936.3946086139505,0.18893243677535632,0.0,0.22169824827871956,0.17564566928181907,0.047308993120392884,1226.9123096440171,19902.083242763638
5.972986493246623,937.3999155278724,936.4885829530425,0.1890441754884703,0.0,0.22173124936104538,0.17561174674346122,0.047308037141155085,1226.8873485723943,19909.61532652307
5.982991495747874,937.4940051797103,936.5825871294803,0.18915611919489075,0.0,0.22176430560231117,0.175577767179391,0.04730708439224189,1226.8623415574018,19917.142330350354
5.992996498249124,937.588154321011,936.6766242336529,0.1892682731363894,0.0,0.22179741860784175,0.17554372898127407,0.04730613488773027,1226.8372874629667,19924.664262038565
6.003001500750375,937.6823655557836,936.7706973075416,0.1893806424872715,0.0,0.22183058996162153,0.17550963056207491,0.04730518864198356,1226.8121851675671,19932.181129396788
6.013006503251626,937.7766414498856,936.8648093457822,0.18949323235608248,0.0,0.22186382122682843,0.1754754703555234,0.047304245669648574,1226.7870335638654,19939.692940249475
6.023011505752876,937.8709845318729,936.958963296688,0.1896060477872534,0.0,0.2218971139463486,0.17544124681560042,0.04730330598565271,1226.7618315583538,19947.199702435955
6.033016508254127,937.9653972938089,937.0531620632273,0.1897190937626439,0.0,0.22193046964325885,0.17540695841605572,0.04730236960520138,1226.7365780710193,19954.701423809896
6.043021510755377,938.0598821920393,937.1474085039567,0.1898323752030181,0.0,0.22196388982128828,0.17537260364994664,0.04730143654377561,1226.7112720350253,19962.198112238777
6.053026513256628,938.1544416479936,937.2417054339951,0.1899458969695341,0.0,0.22199737596528438,0.17533818102917262,0.04730050681712944,1226.6859123963914,19969.689775603387
6.063031515757879,938.2490780489697,937.3360556259718,0.19005966386521672,0.0,0.2220309295416737,0.1753036890840145,0.04729958044128717,1226.6604981136722,19977.17642179734
6.073036518259129,938.3437937488746,937.4304618109288,0.19017368063630624,0.0,0.2220645519988838,0.17526912636271302,0.04729865743254114,1226.6350281576683,19984.658058726563
6.08304152076038,938.4385910689326,937.5249266791814,0.19028795197355938,0.0,0.2220982447677504,0.17523449143106226,0.04729773780744949,1226.609501511145,19992.134694308876
6.093046523261631,938.5334722984209,937.6194528812113,0.19040248251359282,0.0,0.22213200926193727,0.1751997828719895,0.04729682158283374,1226.5839171685416,19999.606336473484
6.103051525762881,938.6284396953831,937.7140430285413,0.19051727684014816,0.0,0.2221658468783328,0.17516499928515952,0.04729590877577648,1226.5582741356966,20007.07299316057
6.113056528264132,938.7234954873154,937.8086996945702,0.19063233948532127,0.0,0.22219975899743424,0.1751301392865905,0.0472949994036191,1226.5325714295857,20014.53467232082
6.123061530765383,938.8186418718146,937.9034254153657,0.1907476749307189,0.0,0.22223374698370946,0.17509520150829214,0.04729409348395993,1226.5068080780688,20021.99138191502
6.133066533266633,938.9138810172448,937.9982226904798,0.19086328760861912,0.0,0.22226781218596045,0.17506018459790307,0.047293191034651995,1226.4809831196408,20029.44312991364
6.143071535767883,939.0092150633974,938.0930939837589,0.1909791819031357,0.0,0.22230195593768756,0.1750250872183265,0.04729229207380091,1226.4550956031792,20036.88992429643
6.153076538269135,939.1046461221175,938.1880417241122,0.19109536215128767,0.0,0.22233617955742438,0.17498990804739575,0.04729139661976278,1226.4291445877143,20044.33177305198
6.163081540770385,939.2001762779018,938.2830683062425,0.191211832644046,0.0,0.22237048434906506,0.174954645777547,0.04729050469114256,1226.4031291422014,20051.768684177412
6.173086543271635,939.2958075885016,938.3781760913929,0.19132859762735466,0.0,0.22240487160218408,0.17491929911550008,0.04728961630679204,1226.3770483453018,20059.200665677927
6.1830915457728866,939.3915420855343,938.4733674080932,0.19144566130318894,0.0,0.22243934259236725,0.1748838667819275,0.04728873148580787,1226.3509012851537,20066.627725566497
6.193096548274137,939.4873817750552,938.5686445528679,0.19156302783050447,0.0,0.22247389858150932,0.17484834751115708,0.0472878502475297,1226.3246870591663,20074.049871863437
6.203101550775387,939.5833286381068,938.664009790912,0.19168070132617257,0.0,0.22250854081810598,0.1748127400508803,0.04728697261153864,1226.298404773819,20081.467112596136
6.2131065532766385,939.6793846312704,938.7594653567693,0.19179868586590254,0.0,0.22254327053754305,0.17477704316186327,0.047286098597655514,1226.2720535444614,20088.87945579864
6.223111555777889,939.775551687225,938.8550134550237,0.19191698548518013,0.0,0.2225780889623901,0.17474125561765338,0.04728522822593901,1226.2456324951108,20096.286909511364
6.233116558279139,939.8718317152743,938.95065626095,0.19203560418013482,0.0,0.22261299730267195,0.17470537620430796,0.04728436151668402,1226.219140758265,20103.689481780766
6.24312156078039,939.9682266018518,939.0463959211377,0.1921545459083732,0.0,0.2226479967561294,0.1746694037201336,0.04728349849042018,1226.1925774747217,20111.087180658982
6.253126563281641,940.0647382110229,939.1422345541098,0.19227381458981616,0.0,0.22268308850848148,0.1746333369754246,0.047282639167910416,1226.1659417933981,20118.48001420358
6.263131565782891,940.1613683849973,939.2381742509596,0.19239341410752944,0.0,0.2227182737336851,0.1745971747922029,0.04728178357014913,1226.1392328711522,20125.867990477203
6.273136568284142,940.258118944617,939.3342170759511,0.1925133483085338,0.0,0.22275355359418916,0.17456091600396476,0.047280931718360814,1226.1124498726058,20133.251117547323
6.283141570785393,940.3549916898186,939.4303650670935,0.19263362100454595,0.0,0.22278892924116603,0.17452455945544898,0.04728008363399863,1226.0855919699864,20140.629403485902
6.293146573286643,940.4519884000919,939.5266202367077,0.19275423597273575,0.0,0.22282440181474858,0.1744881040024002,0.04727923933874313,1226.0586583429626,20148.002856369163
6.3031515757878935,940.54911083495,939.62298457201,0.19287519695647204,0.0,0.22285997244426384,0.17445154851133554,0.04727839885450068,1226.0316481784832,20155.371484277264
6.313156578289145,940.6463607343793,939.7194600356669,0.19299650766606674,0.0,0.2228956422484658,0.17441489185931192,0.04727756220340209,1226.004560670617,20162.735295294082
6.323161580790395,940.7437398192642,939.816048566325,0.1931181717794502,0.0,0.22293141233574687,0.17437813293371468,0.04727672940780139,1225.9773950204053,20170.09429750691
6.3331665832916455,940.8412497918065,939.9127520791278,0.19324019294284672,0.0,0.22296728380434905,0.17434127063204669,0.0472759004902747,1225.950150435718,20177.44849900623
6.343171585792896,940.9388923359583,940.0095724662541,0.19336257477147467,0.0,0.22300325774258328,0.1743043038617089,0.04727507547361874,1225.9228261311011,20184.797907885444
6.353176588294147,941.0366691178357,940.1065115974284,0.19348532085021283,0.0,0.22303933522903793,0.17426723153979234,0.04727425438084966,1225.895421327633,20192.142532240676
6.3631815907953975,941.1345817861105,940.2035713204098,0.19360843473421926,0.0,0.22307551733277267,0.17423005259288443,0.04727343723520185,1225.8679352527904,20199.482380170473
6.373186593296648,941.2326319723945,940.3007534614658,0.19373191994955377,0.0,0.22311180511351264,0.1741927659568743,0.04727262406012697,1225.8403671403155,20206.81745977563
6.383191595797899,941.3308212916361,940.3980598258652,0.19385577999380604,0.0,0.22314819962184568,0.17415537057675648,0.04727181487929266,1225.8127162300775,20214.14777915893
6.393196598299149,941.4291513425003,940.4954921983497,0.19398001833670583,0.0,0.22318470189941306,0.17411786540644003,0.04727100971658137,1225.7849817679432,20221.473346424955
6.4032016008004,941.5276237077356,940.5930523435869,0.1941046384207206,0.0,0.2232213129790964,0.1740802494085615,0.04727020859608933,1225.757163005647,20228.79416967986
6.413206603301651,941.62623995452,940.6907420066011,0.19422964366158438,0.0,0.22325803388518306,0.17404252155431996,0.047269411542125696,1225.7292592006763,20236.110257031145
6.423211605802901,941.7250016348296,940.7885629132286,0.19435503744890847,0.0,0.22329486563355735,0.1740046808232857,0.04726861857921137,1225.7012696161396,20243.42161658751
6.433216608304152,941.8239102857896,940.8865167705529,0.1944808231467361,0.0,0.22333180923187412,0.1739667262032271,0.047267829732077944,1225.6731935206483,20250.728256458602
6.443221610805402,941.922967430009,940.9846052673205,0.19460700409407683,0.0,0.22336886567972597,0.17392865668994303,0.047267045025666754,1225.6450301881976,20258.03018475484
6.453226613306653,942.0221745759044,941.0828300743391,0.19473358360542153,0.0,0.2234060359688039,0.1738904712871027,0.04726626448512812,1225.61677889806,20265.32740958725
6.463231615807904,942.1215332180349,941.181192844895,0.1948605649712888,0.0,0.22344332108306864,0.17385216900607423,0.047265488135820335,1225.5884389346627,20272.619939067263
6.473236618309154,942.2210448374273,941.2796952151537,0.19498795145874073,0.0,0.2234807219989119,0.17381374886576365,0.047264716003308595,1225.5600095874793,20279.907781306534
6.483241620810405,942.3207109018847,941.3783388045438,0.1951157463118683,0.0,0.22351823968530826,0.1737752098924629,0.04726394811336425,1225.5314901509237,20287.190944416798
6.493246623311656,942.4205328662873,941.4771252161262,0.1952439527522944,0.0,0.22355587510397223,0.17373655111969302,0.047263184491964066,1225.5028799242411,20294.469436509666
6.503251625812906,942.5205121728993,941.5760560369738,0.19537257397966304,0.0,0.22359362920951115,0.17369777158805128,0.04726242516528933,1225.474178211403,20301.743265696485
6.513256628314157,942.6206502516684,941.6751328385438,0.19550161317211376,0.0,0.22363150294957412,0.17365887034506244,0.04726167015972487,1225.4453843210042,20309.01244008818
6.523261630815408,942.7209485205135,941.7743571770317,0.19563107348675163,0.0,0.22366949726499835,0.17361984644503214,0.04726091950185843,1225.4164975661618,20316.276967795075
6.533266633316658,942.8214083856026,941.8737305937124,0.1957609580601067,0.0,0.22370761308995296,0.17358069894890366,0.047260173218479896,1225.3875172644152,20323.536856926792
6.543271635817908,942.9220312416321,941.9732546152869,0.19589127000857434,0.0,0.22374585135207664,0.17354142692411986,0.047259431336580615,1225.3584427376313,20330.792115592052
6.55327663831916,943.022818472109,942.0729307542288,0.19602201242888714,0.0,0.2237842129726253,0.173502029444476,0.04725869388335246,1225.3292733119022,20338.042751898556
6.56328164082041,943.1237714496137,942.1727605091103,0.1961531883985312,0.0,0.22382269886660197,0.17346250558998955,0.0472579608861872,1225.3000083174563,20345.288773952852
6.57328664332166,943.2248915360598,942.2727453649185,0.1962848009761876,0.0,0.22386130994289496,0.17342285444676242,0.04725723237267592,1225.2706470885612,20352.5301898602
6.583291645822912,943.3261800829507,942.3728867933729,0.19641685320214355,0.0,0.223900047104406,0.17338307510685258,0.04725650837060831,1225.2411889634366,20359.767007724422
6.593296648324162,943.4276384316389,942.4731862532446,0.19654934809871644,0.0,0.22393891124818313,0.1733431666681414,0.04725578890797189,1225.211633284161,20366.999235647796
6.603301650825412,943.5292679135754,942.5736451906625,0.1966822886706786,0.0,0.2239779032655533,0.17330312823420102,0.0472550740129514,1225.1819793965813,20374.226881730934
6.613306653326664,943.6310698505448,942.6742650394007,0.19681567790563415,0.0,0.22401702404223986,0.17326295891417698,0.04725436371392826,1225.1522266502311,20381.44995407264
6.623311655827914,943.733045554907,942.7750472211744,0.19694951877443792,0.0,0.22405627445849371,0.17322265782265708,0.04725365803948001,1225.1223743982384,20388.66846076981
6.633316658329164,943.835196329836,942.8759931459346,0.19708381423157878,0.0,0.2240956553892128,0.17318222407955192,0.047252957018379546,1225.092421997245,20395.88240991734
6.643321660830415,943.9375234695503,942.9771042121498,0.1972185672155719,0.0,0.2241351677040649,0.173141656809972,0.047252260679594545,1225.0623688073215,20403.091809607948
6.653326663331666,944.040028259534,943.078381807075,0.19735378064932846,0.0,0.2241748122676029,0.17310095514411292,0.04725156905228704,1225.032214191886,20410.296667932154
6.663331665832916,944.1427119767575,943.1798273070225,0.19748945744052981,0.0,0.22421458993938137,0.1730601182171382,0.04725088216581289,1225.0019575176232,20417.496992978107
6.673336668334167,944.2455758899026,943.2814420776357,0.1976256004820166,0.0,0.22425450157407853,0.17301914516905792,0.0472502000497211,1224.9715981544025,20424.692792831538
6.683341670835418,944.3486212595755,943.3832274741508,0.19776221265213734,0.0,0.22429454802160478,0.17297803514461982,0.04724952273375329,1224.9411354752003,20431.884075575625
6.693346673336668,944.451849338514,943.4851848416467,0.19789929681511784,0.0,0.22433473012721825,0.17293678729319406,0.04724885024784327,1224.9105688560214,20439.0708492909
6.703351675837919,944.5552613717887,943.5873155152932,0.1980368558213872,0.0,0.22437504873162598,0.1728954007686718,0.04724818262211665,1224.8798976758283,20446.253122055194
6.71335667833917,944.6588585970159,943.6896208206059,0.19817489250796164,0.0,0.22441550467110444,0.17285387472934488,0.047247519886890146,1224.849121316457,20453.430901943495
6.72336168084042,944.7626422445556,943.7921020736904,0.1983134096987882,0.0,0.22445609877760633,0.17281220833779895,0.04724686207267118,1224.818239162545,20460.604197027933
6.7333666833416705,944.8666135377024,943.8947605814725,0.1984524102050533,0.0,0.22449683187885697,0.17277040076081715,0.0472462092101574,1224.7872506014626,20467.773015377614
6.743371685842921,944.9707736928762,943.9975976419296,0.19859189682554074,0.0,0.2245377047984659,0.17272845116926835,0.047245561330236385,1224.7561550232363,20474.93736505861
6.753376688344172,945.0751239198195,944.1006145443274,0.19873187234697198,0.0,0.22457871835603316,0.17268635873800126,0.047244918463985056,1224.7249518204753,20482.097254133834
6.7633816908454225,945.1796654217784,944.2038125694436,0.19887233954431408,0.0,0.2246198733672453,0.1726441226457478,0.04724428064266919,1224.6936403883053,20489.252690662997
6.773386693346673,945.2843993956863,944.3071929897865,0.19901330118110408,0.0,0.22466117064397664,0.1726017420750226,0.04724364789774309,1224.6622201242967,20496.40368270253
6.783391695847924,945.3893270323397,944.4107570698076,0.199154760009778,0.0,0.22470261099439148,0.17255921621202,0.047243020260849304,1224.6306904283952,20503.550238305495
6.7933966983491745,945.4944495165806,944.5145060661214,0.19929671877198665,0.0,0.224744195223043,0.17251654424651588,0.04724239776381805,1224.5990507028528,20510.692365521525
6.803401700850425,945.5997680274679,944.6184412277137,0.19943918019888912,0.0,0.2247859241309647,0.1724737253717757,0.04724178043866682,1224.5673003521647,20517.830072396777
6.813406703351676,945.7052837384487,944.7225637961456,0.1995821470114762,0.0,0.2248277985157711,0.17243075878445388,0.047241168317600016,1224.5354387829982,20524.963366973865
6.8234117058529264,945.8109978175223,944.8268750057518,0.1997256219208655,0.0,0.22486981917174959,0.17238764368450213,0.047240561433008775,1224.50346540413,20532.092257291763
6.833416708354177,945.9169114274093,944.9313760838426,0.19986960762859954,0.0,0.22491198688995362,0.17234437927507615,0.0472399598174704,1224.4713796263832,20539.216751385804
6.843421710855427,946.0230257257149,945.0360682509005,0.20001410682694803,0.0,0.22495430245829692,0.17230096476244128,0.04723936350374798,1224.4391808625576,20546.33685728757
