z,T,t,fs,fl,x,y,w,rhob,p
0.0,634.038772840775,505.0,0.0,0.0,0.16221139332472054,0.23559136158506183,0.047714605784107314,1268.0,14330.0
0.0097703957010258,642.1952028104336,517.517967327255,2.628464062158782e-05,0.0,0.16221954775190076,0.23558320715770495,0.04771460578382796,1267.9943162091586,14338.938357095409
0.0195407914020517,650.0581920966283,529.5678602151172,5.639193457817504e-05,0.0,0.1622288881013789,0.23557386680783715,0.04771460578321175,1267.9878058075751,14348.050782104883
0.0293111871030776,657.640825829675,541.1718704591466,9.04883465828952e-05,0.0,0.16223946601612674,0.23556328889228237,0.047714605781935704,1267.9804327987429,14357.331392206232
0.0390815828041035,664.9554223961713,552.3507768194,0.00012871681048820646,0.0,0.1622513258387982,0.23555142906803106,0.04771460577943744,1267.9721662743364,14366.774477071187
0.0488519785051294,672.0135921715068,563.124064306109,0.0001711978711144541,0.0,0.16226450496585082,0.23553824993803651,0.0477146057747852,1267.9629801672327,14376.374495336548
0.0586223742061553,678.8262906730988,573.5100308068795,0.0002180310394063471,0.0,0.16227903426780846,0.23552372063084076,0.047714605766501925,1267.9528529583743,14386.12607087744
0.0683927699071812,685.403866757383,583.5258826658613,0.00026929627191154973,0.0,0.16229493854804736,0.23550781634164433,0.047714605752336915,1267.9417673567214,14396.023988940637
0.0781631656082071,691.7561064050591,593.1878205873563,0.00032505550671475125,0.0,0.16231223701904604,0.23549051785587558,0.047714605728980224,1267.9297099669657,14406.063192185089
0.087933561309233,697.8922725713662,602.5111170383497,0.00038535420532544303,0.0,0.1623309437804301,0.23547181107092754,0.04771460569171731,1267.9166709559222,14416.238776668006
0.0977039570102589,703.8211415196764,611.5101861589144,0.0004502228639760204,0.0,0.16235106828747453,0.23545168652739978,0.047714605634024375,1267.9026437255047,14426.545987807553
0.1074743527112848,709.5510360061146,620.1986470504212,0.0005196784688037707,0.0,0.16237261580214798,0.23543013895776277,0.047714605547107665,1267.887624597803,14436.980216347325
0.1172447484123107,715.0898556390867,628.5893811942356,0.0005937258779436659,0.0,0.1623955878214382,0.23540716685770954,0.04771460541939299,1267.8716125159408,14447.53699434294
0.1270151441133366,720.4451046995557,636.6945846542799,0.000672359120094821,0.0,0.16241998247972916,0.2353827720834302,0.04771460523597462,1267.854608762969,14458.211991187007
0.1367855398143624,725.6239176748265,644.525815632418,0.0007555626040361627,0.0,0.16244579492352582,0.23535695947652002,0.047714604978034786,1267.8366167000036,14469.001009685519
0.1465559355153883,730.6330827297793,652.094037873579,0.0008433122371922105,0.0,0.16247301765794886,0.23532973651710729,0.0477146046222471,1267.8176415240177,14479.89998219592
0.1563263312164142,735.479063314326,659.409660355857,0.000935576453967048,0.0,0.16250164086523544,0.23530111300497467,0.04771460414017842,1267.797690045147,14490.904966834914
0.1660967269174401,740.168018083865,666.4825736478273,0.0010323171564013338,0.0,0.162531652696051,0.23527110076787722,0.047714603497704025,1267.7767704829614,14502.012143762182
0.175867122618466,744.7058192902166,673.322183269649,0.0011334905709465112,0.0,0.16256303953480336,0.23523971339587676,0.04771460265445151,1267.7548922808903,14513.217811544655
0.1856375183194919,749.0980697836003,679.9374403550423,0.0012390480259377803,0.0,0.16259578624039275,0.23520696600026747,0.04771460156328767,1267.7320659378204,14524.518383604747
0.1954079140205178,753.3501187513168,686.3368698770033,0.0013489366547971592,0.0,0.16262987636397064,0.23517287499552822,0.04771460016986203,1267.7083028557845,14535.91038475486
0.2051783097215437,757.4670763056806,692.528596670364,0.0014631000301993293,0.0,0.16266529234534136,0.23513745790267573,0.04771459841221898,1267.683615202616,14547.390447819647
0.2149487054225696,761.4538270221619,698.5203694583738,0.0015814787344547879,0.0,0.16270201568964565,0.23510073317238564,0.04771459622048866,1267.658015788441,14558.955310346808
0.2247191011235955,765.3150425184573,704.3195830678144,0.0017040108712600192,0.0,0.16274002712593075,0.2350627200262819,0.047714593516664884,1267.6315179548938,14570.601811406577
0.2344894968246214,769.0551931561312,709.9332989973155,0.001830632523773076,0.0,0.1627793067491506,0.23502343831485487,0.04771459021447602,1267.6041354759927,14582.326888479642
0.2442598925256472,772.6785589384202,715.3682644861102,0.0019612781637253973,0.0,0.16281983414706114,0.2349829083905456,0.047714586219352574,1267.575882469656,14594.127574432776
0.2540302882266732,776.1892396706385,720.6309302151345,0.0020958810159994556,0.0,0.16286158851338595,0.23494115099462187,0.047714581428493115,1267.5467733189018,14606.00099458124
0.263800683927699,779.5911644432441,725.7274667588588,0.002234373382803438,0.0,0.16290454874853344,0.23489818715656452,0.047714575731027886,1267.5168226018372,14617.944363836636
0.2735710796287249,782.8881004919564,730.6637798942869,0.002376686931270782,0.0,0.1629486935490509,0.23485403810477684,0.04771456900827763,1267.486045029612,14629.954983938838
0.2833414753297508,786.0836614842295,735.4455248629857,0.002522752948012328,0.0,0.16299400148690585,0.2348087251875245,0.04771456113410315,1267.4544553915637,14642.030240770358
0.2931118710307767,789.1813152768584,740.078119672622,0.00267250256385822,0.0,0.16304045107959392,0.23476226980310233,0.047714551975339775,1267.42206850686,14654.16760175141
0.3028822667318026,792.1843911854234,744.5667575161445,0.002825866951749227,0.0,0.16308802085198457,0.23471469333831235,0.047714541392309365,1267.3888991819867,14666.364613313886
0.3126526624328285,795.0960868026344,748.9164183793292,0.002982777500475325,0.0,0.16313668939073464,0.23466601711441767,0.047714529239401386,1267.3549621734978,14678.618898452367
0.3224230581338544,797.9194743993606,753.1318799007764,0.0031431659667145256,0.0,0.16318643539202232,0.23461626233981395,0.04771451536571396,1267.3202721554906,14690.928154350177
0.3321934538348803,800.657506939181,757.2177275425436,0.003306964607597562,0.0,0.16323723770328322,0.23456545006873017,0.04771449961574484,1267.2848436913184,14703.290150078623
0.3419638495359062,803.3130237346396,761.1783641242926,0.003474106295814079,0.0,0.16328907535956502,0.2345136011653362,0.04771448183012225,1267.2486912091024,14715.70272436738
0.3517342452369321,805.8887557709892,765.0180187690976,0.0036445246190830766,0.0,0.1633419276150572,0.23446073627269387,0.047714461846365165,1267.2118289806388,14728.163783444075
0.361504640937958,808.3873307210464,768.7407553047906,0.0038181539656337326,0.0,0.16339577397029703,0.2344068757860438,0.0477144394996628,1267.1742711033423,14740.671298941123
0.3712750366389838,810.8112776728218,772.3504801609017,0.003994929597181567,0.0,0.16345059419550423,0.23435203982996963,0.04771441462366345,1267.1360314848994,14753.223305867872
0.3810454323400097,813.1630315898155,775.8509497977976,0.004174787710738258,0.0,0.16350636835045076,0.23429624823902676,0.04771438705126293,1267.0971238303343,14765.81790064612
0.3908158280410356,815.4449375222607,779.245777701517,0.004357665490460212,0.0,0.1635630768012321,0.234239520541464,0.0477143566153839,1267.0575616312267,14778.453239207129
0.4005862237420615,817.6592545861386,782.5384409749933,0.00454350115062029,0.0,0.1636207002342688,0.23418187594570364,0.04771432314973778,1267.0173581568356,14791.127535148305
0.4103566194430874,819.8081597254585,785.7322865538193,0.004732233970677838,0.0,0.16367921966783433,0.23412333332927973,0.047714286489561684,1266.9765264469227,14803.839057947676
0.4201270151441133,821.8937512720921,788.8305370724086,0.004923804323323437,0.0,0.16373861646137594,0.23406391122996337,0.047714246472324015,1266.9350793060735,14816.586131234431
0.4298974108451392,823.9180523163454,791.8362964043245,0.0051181536962856215,0.0,0.16379887232286677,0.2340036278388332,0.04771420293839281,1266.8930292993493,14829.367131113766
0.4396678065461651,825.8830139004525,794.7525548986615,0.005315224708606486,0.0,0.1638599693144053,0.2339425009950722,0.04771415573166222,1266.8503887491122,14842.180484544357
0.449438202247191,827.7905180462532,797.5821943326373,0.005514961122020549,0.0,0.1639218898562548,0.23388054818229523,0.04771410470013315,1266.8071697328826,14855.024667766775
0.4592085979482169,829.642380627483,800.3279925989938,0.0057173078480060495,0.0,0.16398461672949738,0.23381778652623164,0.04771404969644521,1266.7633840821065,14867.898204781293
0.4689789936492428,831.4403540963311,802.9926281453803,0.005922210951019086,0.0,0.1640481330774586,0.23375423279360447,0.04771399057835767,1266.7190433817207,14880.799665873465
0.4787493893502687,833.1861300732216,805.5786841815863,0.006129617648368116,0.0,0.16411242240604393,0.2336899033920655,0.047713927209178365,1266.6741589704145,14893.72766618599
0.4885197850512945,834.8813418081295,808.0886526693082,0.00633947630713885,0.0,0.1641774685831135,0.2336248143710581,0.04771385945813971,1266.6287419415023,14906.680864335409
0.4982901807523204,836.5275665211473,810.5249381080458,0.0065517364385367744,0.0,0.16424325583700916,0.23355898142349474,0.047713787200722224,1266.5828031443234,14919.657961072142
0.5080605764533463,838.1263276294764,812.8898611297262,0.00676634868997612,0.0,0.16430976875433692,0.23349241988814654,0.04771371031892604,1266.5363531861024,14932.657697982553
0.5178309721543722,839.6790968675172,815.185661913748,0.0069832648352095876,0.0,0.16437699227709654,0.23342514475265286,0.047713628701491886,1266.4894024342045,14945.678856231645
0.5276013678553981,841.1872963062685,817.4145034332953,0.007202437762762079,0.0,0.1644449116992424,0.23335717065706985,0.047713542244073114,1266.4419610187315,14958.720255345117
0.537371763556424,842.6523002778271,819.5784745430057,0.007423821462903792,0.0,0.1645135126627496,0.23328851189788316,0.04771345084936101,1266.3940388354067,14971.780752029494
0.5471421592574499,844.0754372103801,821.6795929173719,0.007647371013373032,0.0,0.16458278115325337,0.23321918243241993,0.04771335442716573,1266.345645548708,14984.859239029141
0.5569125549584758,845.4579913787292,823.719807848602,0.00787304256403655,0.0,0.16465270349532207,0.23314919588360045,0.047713252894455625,1266.2967905952053,14997.954644018959
0.5666829506595017,846.8012045750457,825.7010029120688,0.00810079332065505,0.0,0.16472326634741882,0.2330785655449772,0.047713146175357775,1266.2474831870713,15011.065928531605
0.5764533463605276,848.1062777042503,827.6249985069246,0.008330581527903317,0.0,0.16479445669659998,0.23300730438601383,0.04771303420112269,1266.197732315735,15024.192086918181
0.5862237420615535,849.3743723081234,829.4935542789495,0.00856236645177817,0.0,0.16486626185299513,0.23293542505756218,0.04771291691005635,1266.147546755648,15037.332145341263
0.5959941377625794,850.6066120219936,831.3083714322306,0.008796108361512772,0.0,0.16493866944410807,0.2328629398974997,0.04771279424742254,1266.0969350681407,15050.485160799266
0.6057645334636053,851.8040839675965,833.0710949358325,0.009031768511102694,0.0,0.16501166740897374,0.23278986093649393,0.047712666165318565,1266.0459056053505,15063.650220181138
0.6155349291646312,852.9678400854804,834.7833156312241,0.009269309120537361,0.0,0.16508524399220323,0.23271619990386389,0.04771253262252749,1265.9944665141986,15076.826439350414
0.625305324865657,854.0988984101166,836.4465722458441,0.009508693356819895,0.0,0.16515938773794495,0.23264196823351252,0.047712393584349574,1265.942625740401,15090.012962257691
0.6350757205666829,855.1982442906814,838.0623533178529,0.009749885314848855,0.0,0.16523408748378743,0.23256717706990598,0.04771224902241594,1265.8903910325014,15103.208960080612
0.6448461162677088,856.2668315602905,839.6320990367931,0.009992849998226867,0.0,0.1653093323546261,0.23249183727407943,0.04771209891448704,1265.83776994591,15116.413630390489
0.6546165119687347,857.3055836563037,841.1572030045836,0.010237553300053489,0.0,0.16538511175651424,0.2324159594296507,0.047711943244238456,1265.7847698469393,15129.626196344725
0.6643869076697606,858.3153946941538,842.6390139210029,0.010483961983752746,0.0,0.16546141537051556,0.2323395538488258,0.04771178200103646,1265.7313979168273,15142.845905904202
0.6741573033707865,859.2971304970142,844.078837197554,0.010732043663988602,0.0,0.16553823314657737,0.2322626305783786,0.0477116151797055,1265.6776611557357,15156.072031074838
0.6839276990718124,860.2516295847253,845.4779365051446,0.010981766797772128,0.0,0.1656155553005601,0.23218519940247073,0.04771144278028969,1265.623566384543,15169.303867172568
0.6888128969223253,860.718920195088,846.162598561291,0.011107234508286828,0.0,0.16565440260431258,0.23214629626580008,0.04771135449018149,1265.5963867788876,15175.921712803081
0.6936980947728383,861.1797050455493,846.8375365675779,0.011233108121798417,0.0,0.1656933746213558,0.23210726753537927,0.04771126480780981,1265.5691186364602,15182.540732113202
0.6961406936980947,861.4076914062923,847.1714093714485,0.011296220625997335,0.0,0.16571291468332627,0.23208769878680854,0.047711219444937995,1265.5554462860425,15185.85065628187
0.6985832926233513,861.6341013211131,847.5029252686414,0.011359542561509499,0.0,0.1657325194159176,0.23206806514783132,0.047711173734521384,1265.5417284574069,15189.160843339258
0.6998045920859794,861.7467267124875,847.6678161662418,0.011391345509218508,0.0,0.16574236571615966,0.23205820431201232,0.04771115074904013,1265.5348387698282,15190.816032358603
0.7010258915486077,861.8589719874088,847.8321380839324,0.011423277788622257,0.0,0.16575225206423572,0.23204830337345383,0.04771112767673741,1265.5279210679018,15192.47128342056
0.7034684904738642,862.0823235921667,848.1590774494624,0.011487495010084801,0.0,0.16577213394257137,0.23202839214948867,0.047711081271749674,1265.5140092613346,15195.781966871855
0.7059110893991206,862.3041434428548,848.4837262946712,0.011551998694102922,0.0,0.16579210439001604,0.2320083921369674,0.04771103451975293,1265.5000353196076,15199.092884054206
0.7083536883243771,862.5244263742746,848.806078254172,0.011616653566648162,0.0,0.16581212143985882,0.23198834530275497,0.047710987420990926,1265.4860284945103,15202.404025267917
0.7132388861748901,862.9604121358204,849.4439389426798,0.011746290217099359,0.0,0.16585225605318818,0.23194815046351394,0.04771089218428917,1265.4579435838248,15209.02694112435
0.723009281875916,863.8143711431909,850.6927514445508,0.012006772523704296,0.0,0.16593289674866082,0.23186738669309429,0.04771069756298064,1265.4015100499907,15222.27503990588
0.7327796775769418,864.6449064388694,851.9065772915645,0.01226883556852535,0.0,0.16601402305305824,0.2317861338282844,0.04771049743016754,1265.3447316716806,15235.525664780416
0.7425500732779677,865.4527115210312,853.086459067557,0.012532452497671443,0.0,0.16609562665988295,0.23170440019208804,0.047710291811961014,1265.2876142701123,15248.778236629996
0.7523204689789936,866.238458492274,854.2334068131634,0.012797597336303717,0.0,0.16617769953843656,0.2316221938339372,0.04771008073799404,1265.2301634783514,15262.032195102041
0.7620908646800195,867.002798754563,855.3483991056606,0.01306424479592022,0.0,0.16626023387382707,0.23153952258953758,0.04770986424118904,1265.1723847828557,15275.286998036694
0.7718612603810454,867.7463636988062,856.4323841264903,0.013332370257397416,0.0,0.16634322206150723,0.23145639408618693,0.04770964235753077,1265.1142835270177,15288.5421209117
0.7816316560820713,868.4697653684437,857.4862806874429,0.013601949754675243,0.0,0.16642665670201767,0.2313728157478918,0.04770941512584525,1265.0558649145717,15301.797056304265
0.7914020517830972,869.1735970981622,858.5109792173488,0.01387295995874176,0.0,0.16651053059582904,0.23128879480039002,0.04770918258758495,1264.9971340129384,15315.051313369417
0.8011724474841231,869.8584341288324,859.5073427110726,0.014145378161921114,0.0,0.1665948367382839,0.2312043382760769,0.04770894478662094,1264.9380957565086,15328.304417334308
0.810942843185149,870.5248341997092,860.4762076425118,0.014419182262468112,0.0,0.1666795683146404,0.23111945301883488,0.04770870176904207,1264.8787549498647,15341.55590900799
0.8207132388861749,871.1733381188762,861.418384843211,0.014694350749471593,0.0,0.16676471869521808,0.23103414568876535,0.047708453582961594,1264.8191162709384,15354.805344306165
0.8304836345872008,871.8044703128734,862.3346603481169,0.014970862688067651,0.0,0.1668502814306468,0.23094842276682212,0.04770820027833126,1264.7591842741065,15368.052293790452
0.8402540302882266,872.4187393563896,863.2257962099159,0.015248697704963003,0.0,0.16693625024721834,0.23086229055934732,0.04770794190676313,1264.6989633932228,15381.296342221709
0.8500244259892525,873.0166384828675,864.0925312833258,0.015527835974267854,0.0,0.167022619042341,0.23077575520250868,0.04770767852135904,1264.6384579445896,15394.537088126992
0.8597948216902784,873.5986460768167,864.935581980639,0.01580825820363704,0.0,0.16710938188009683,0.23068882266663968,0.04770741017654781,1264.5776721298635,15407.774143379705
0.8695652173913043,874.165226148597,865.7556429997476,0.016089945620717507,0.0,0.16719653298690035,0.2306014987604824,0.047707136927930084,1264.5166100389013,15421.007132792545
0.8793356130923302,874.716828792394,866.5533880258213,0.016372879959899746,0.0,0.16728406674725863,0.23051378913533443,0.0477068588321308,1264.4552756525445,15434.235693722845
0.8891060087933561,875.253890628077,867.3294704077466,0.016657043449370242,0.0,0.16737197769963116,0.23042569928910023,0.047706575946659106,1264.3936728453416,15447.459475689935
0.898876404494382,875.7768352275889,868.0845238103827,0.016942418798461634,0.0,0.1674602605323888,0.2303372345702484,0.047706288329775706,1264.3318053882108,15460.678140004124
0.908646800195408,876.2860735264969,868.8191628436373,0.017228989185297004,0.0,0.16754891007987002,0.23024840018167594,0.04770599604036729,1264.2696769510426,15473.89135940699
0.9184171958964338,876.7820042212936,869.5339836693136,0.017516738244724207,0.0,0.16763792131853375,0.23015920118448052,0.0477056991378281,1264.2072911052444,15487.098817722588
0.9281875915974596,877.2650141530148,870.2295645866385,0.01780565005653622,0.0,0.16772728936320672,0.23006964250164272,0.047705397681948244,1264.1446513262263,15500.30020951925
0.9379579872984856,877.7354786777144,870.9064665973327,0.018095709133972904,0.0,0.16781700946342393,0.22997972892161872,0.04770509173280867,1264.0817609958292,15513.495239781669
0.9477283829995116,878.1937620243093,871.5652339510456,0.018386900412499692,0.0,0.167907076999861,0.229889465101846,0.04770478135068256,1264.018623404698,15526.683623592924
0.9574987787005372,878.6402176402855,872.2063946719383,0.01867920923885844,0.0,0.16799748748085613,0.22979885557216279,0.04770446659594291,1263.955241754598,15539.86508582616
0.9672691744015632,879.075188525734,872.8304610671617,0.018972621360385612,0.0,0.16808823653902039,0.22970790473814298,0.047704147528976025,1263.8916191606775,15553.039360845625
0.9770395701025892,879.4990075561616,873.4379302179392,0.019267122914592726,0.0,0.16817931992793436,0.22961661688434853,0.04770382421010085,1263.8277586536763,15566.206192216745
0.986809965803615,879.9119977945065,874.0292844539347,0.01956270041900419,0.0,0.1682707335189297,0.22952499617750044,0.04770349669949373,1263.763663182082,15579.365332425023
0.9965803615046408,880.3144727927652,874.6049918115524,0.019859340761247422,0.0,0.16836247329795342,0.22943304666957004,0.047703165057118455,1263.6993356142348,15592.516542603424
1.006350757205667,880.7067368836193,875.1655064767866,0.020157031189390082,0.0,0.1684545353625132,0.2293407723007927,0.047702829342661374,1263.634778740381,15605.659592268032
1.0161211529066927,881.0890854624391,875.7112692132125,0.020455759302519354,0.0,0.16854691591870247,0.22924817690260488,0.04770248961547132,1263.5699952746777,15618.794259061702
1.0258915486077185,881.461805260017,876.2427077756812,0.020755513041558267,0.0,0.16863961127830254,0.22915526420050664,0.04770214593450412,1263.504987857147,15631.920328505483
1.0356619443087445,881.8251746063728,876.7602373102577,0.02105628068031378,0.0,0.16873261785596103,0.22906203781685122,0.047701798358271506,1263.439759055585,15645.037593757546
1.0454323400097705,882.1794636859611,877.2642607409183,0.021358050816751684,0.0,0.16882593216644373,0.22896850127356316,0.04770144694479414,1263.3743113674223,15658.145855379415
1.0552027357107965,882.524934784588,877.7551691434978,0.021660812364493253,0.0,0.16891955082195945,0.2288746579947866,0.047701091751558664,1263.3086472215386,15671.244921109264
1.064973131411822,882.8618425283424,878.2333421073615,0.021964554544528635,0.0,0.16901347052955473,0.22878051130946536,0.0477007328354784,1263.2427689800343,15684.334605642074
1.074743527112848,883.1904341148253,878.6991480852486,0.02226926687714211,0.0,0.16910768808857793,0.22868606445385667,0.04770037025285771,1263.1766789399553,15697.41473041642
1.084513922813874,883.5109495369545,879.152944731723,0.022574939174044132,0.0,0.16920220038821004,0.22859132057397952,0.04770000405935965,1263.1103793349782,15710.485123407716
1.0942843185148998,883.8236217996078,879.5950792306428,0.022881561530705617,0.0,0.1692970044050614,0.22849628272799985,0.047699634309976785,1263.0438723370512,15723.545618927697
1.1040547142159256,884.1286771293584,880.0258886120455,0.023189124318889472,0.0,0.16939209720083187,0.22840095388855355,0.04769926105900504,1262.9771600579943,15736.596057429968
1.1138251099169516,884.4263351775446,880.4457000588282,0.023497618179374787,0.0,0.16948747592003358,0.22830533694500912,0.04769888436002037,1262.910244551061,15749.636285321407
1.1235955056179776,884.7168092169079,880.8548312035874,0.023807034014869038,0.0,0.16958313778777415,0.22820943470567134,0.04769850426585809,1262.8431278124579,15762.66615477928
1.1333659013190034,885.000306332023,881.253590415968,0.0241173629831038,0.0,0.1696790801075991,0.22811324989992723,0.047698120828594655,1262.7758117828294,15775.685523573868
1.1431362970200292,885.2770276037337,881.6422770808539,0.02442859649010948,0.0,0.16977530025939194,0.2280167851803362,0.04769773409953188,1262.7082983487026,15788.69425489645
1.1529066927210552,885.5471682878027,882.021181867725,0.024740726183664685,0.0,0.16987179569733019,0.22792004312466502,0.047697344129183306,1262.6405893438957,15801.692217192478
1.1626770884220812,885.8109179879724,882.390586991486,0.025053743946915886,0.0,0.1699685639478963,0.2278230262378701,0.04769695096726262,1262.5726865508925,15814.67928399978
1.172447484123107,886.068460823627,882.750766465065,0.025367641892163298,0.0,0.17006560260794154,0.22772573695402704,0.04769655466267408,1262.5045917021798,15827.655333791645
1.1822178798241327,886.3199755922415,883.1019863440654,0.02568241235480872,0.0,0.17016290934280207,0.2276281776382099,0.04769615526350465,1262.436306481553,15840.620249824651
1.1919882755251587,886.5656359267899,883.4445049637438,0.025998047887461278,0.0,0.1702604818844651,0.22753035058832097,0.04769575281701793,1262.3678325253857,15853.573919991077
1.2017586712261847,886.805610448286,883.7785731685785,0.0263145412541972,0.0,0.17035831802978457,0.22743225803687248,0.047695347369649595,1262.2991714238697,15866.516236675754
1.2115290669272103,887.0400629136166,884.1044345346772,0.02663188542496966,0.0,0.17045641563874442,0.22733390215272103,0.047694938967004254,1262.2303247222223,15879.447096617256
1.2212994626282363,887.2691523588265,884.4223255852706,0.026950073570165024,0.0,0.17055477263276864,0.22723528504275683,0.04769452765385383,1262.1612939218614,15892.366400773251
1.2310698583292623,887.4930332380048,884.7324759995221,0.027269099055301504,0.0,0.17065338699307642,0.22713640875354782,0.04769411347413703,1262.0920804815523,15905.274054189935
1.2408402540302883,887.7118555579174,885.0351088148792,0.02758895543586696,0.0,0.17075225675908173,0.22703727527294096,0.047693696470960105,1262.0226858185247,15918.16996587539
1.250610649731314,887.9257650085275,885.3304406231828,0.027909636452292018,0.0,0.17085138002683567,0.22693788653162072,0.04769327668659864,1261.9531113095597,15931.05404867675
1.26038104543234,888.134903089538,885.6186817607409,0.028231136025055205,0.0,0.17095075494751066,0.22683824440462688,0.047692854162500346,1261.8833582920506,15943.926219161101
1.270151441133366,888.3394072330849,885.9000364925683,0.02855344824991657,0.0,0.17105037972592538,0.22673835071283177,0.04769242893928884,1261.8134280650356,15956.786397499935
1.279921836834392,888.5394109227076,886.1747031909836,0.028876567393276615,0.0,0.17115025261910927,0.22663820722437875,0.047692001056768185,1261.7433218902036,15969.634507357106
1.2896922325354176,888.7350438087175,886.4428745087487,0.02920048788765726,0.0,0.17125037193490553,0.22653781565608255,0.04769157055392825,1261.6730409928743,15982.470475780172
1.2994626282364434,888.9264318200798,886.7047375469322,0.029525204327301706,0.0,0.17135073603061177,0.22643717767479257,0.04769113746895084,1261.6025865629533,15995.294233094985
1.3092330239374694,889.1136972729213,886.9604740176645,0.029850711463890015,0.0,0.17145134331165696,0.22633629489872006,0.04769070183921635,1261.5319597558623,16008.105712803486
1.3190034196384954,889.2969589757727,887.2102604019542,0.030177004202367574,0.0,0.17155219223031407,0.22623516889873016,0.04769026370131115,1261.4611616934444,16020.904851484564
1.3287738153395212,889.4763323316488,887.4542681027235,0.03050407759688341,0.0,0.17165328128444704,0.22613380119959986,0.047689823091035415,1261.390193464848,16033.691588697908
1.338544211040547,889.6519294370682,887.6926635932184,0.030831926846835556,0.0,0.1717546090162917,0.22603219328124244,0.0476893800434115,1261.3190561273852,16046.465866890763
1.348314606741573,889.8238591781093,887.9256085609401,0.03116054729302057,0.0,0.17185617401126915,0.22593034657989958,0.04768893459269271,1261.2477507073704,16059.227631307482
1.358085002442599,889.9922273235954,888.1532600472437,0.03148993441388465,0.0,0.17195797489683098,0.2258282624893019,0.047688486772372474,1261.1762782009355,16071.976829901827
1.3678553981436248,890.1571366155017,888.3757705827409,0.031820083821873575,0.0,0.17206001034133564,0.22572594236179885,0.04768803661519392,1261.104639574824,16084.713413251891
1.3776257938446506,890.3186868566686,888.5932883186393,0.032150991259878976,0.0,0.17216227905295473,0.22562338750945823,0.047687584153159684,1261.0328357671656,16097.437334477605
1.3873961895456766,890.4769749959082,888.8059571541503,0.032482652597778335,0.0,0.1722647797786089,0.22552059920513715,0.04768712941754203,1260.9608676882292,16110.148549160715
1.3971665852467026,890.632095210584,889.0139168600857,0.032815063829066266,0.0,0.1723675113029319,0.2254175786835241,0.04768667243889323,1260.888736221158,16122.847015267185
1.4069369809477283,890.7841389867435,889.2173031987669,0.03314822106757485,0.0,0.1724704724472628,0.22531432714215383,0.04768621324705609,1260.8164422226837,16135.532693071938
1.416707376648754,890.9331951968784,889.4162480403595,0.033482120544280417,0.0,0.17257366206866484,0.22521084574239483,0.047685751871174735,1260.743986523823,16148.205545085866
1.42647777234978,891.0793501753872,889.610879475748,0.03381675860419477,0.0,0.17267707905897092,0.22510713561041115,0.047685288339705444,1260.671369930556,16160.865535985035
1.436248168050806,891.222687791811,889.8013219260562,0.03415213170333841,0.0,0.17278072234385444,0.2250031978380983,0.047684822680427695,1260.5985932244869,16173.512632542035
1.446018563751832,891.3632895219106,889.9876962489188,0.03448823640579378,0.0,0.172884590881925,0.22489903348399448,0.04768435492045524,1260.525657163487,16186.1468035594
1.4557889594528577,891.5012345166513,890.1701198416067,0.03482506938083637,0.0,0.17298868366384845,0.2247946435741678,0.047683885086247275,1260.4525624823214,16198.768019805042
1.4655593551538837,891.6365996691601,890.3487067410991,0.0351626274001416,0.0,0.17309299971149045,0.22469002910307972,0.047683413203619684,1260.3793098932583,16211.376253949613
1.4753297508549097,891.7694596797174,890.5235677212027,0.035500907335065515,0.0,0.1731975380770829,0.2245851910344257,0.04768293929775628,1260.3059000866654,16223.971480505787
1.4851001465559357,891.8998871188421,890.6948103868033,0.03583990615399733,0.0,0.17330229784241274,0.2244801303019536,0.04768246339322006,1260.2323337315859,16236.553675769357
1.4948705422569613,892.0279524885296,890.8625392653419,0.03617962091978199,0.0,0.17340727811803236,0.22437484781026037,0.04768198551396451,1260.1586114763033,16249.12281776211
1.5046409379579873,892.1537242816979,891.0268558955986,0.0365200487872109,0.0,0.17351247804249129,0.22426934443556742,0.04768150568334482,1260.0847339488912,16261.678886176449
1.5144113336590133,892.2772690398963,891.187858913867,0.03686118700057884,0.0,0.17361789678158815,0.22416362102647577,0.04768102392412907,1260.0107017577452,16274.22186232165
1.524181729360039,892.3986514093294,891.345644137599,0.03720303289130563,0.0,0.17372353352764297,0.22405767840470092,0.04768054025850945,1259.936515492106,16286.751729071788
1.5339521250610648,892.5179341952479,891.5003046465965,0.03754558387562063,0.0,0.17382938749878865,0.22395151736578817,0.047680054708113345,1259.8621757225646,16299.268470815196
1.5437225207620908,892.6351784147535,891.6519308618258,0.03788883745230843,0.0,0.17393545793828147,0.22384513867980935,0.04767956729401435,1259.7876830015557,16311.772073405486
1.5534929164631168,892.7504433480681,891.8006106219244,0.038232791200514184,0.0,0.17404174411383003,0.22373854309204055,0.047679078036743226,1259.7130378638396,16324.262524114027
1.5632633121641426,892.8637865883117,891.9464292574737,0.03857744277760698,0.0,0.17414824531694212,0.2236317313236224,0.047678586956298806,1259.638240826969,16336.739811583871
1.5730337078651684,892.9752640898337,892.0894696631005,0.03892278991709974,0.0,0.17425496086228892,0.22352470407220243,0.04767809407215872,1259.563292391745,16349.20392578508
1.5828041035661944,893.0849302151423,892.2298123674774,0.03926883042662411,0.0,0.1743618900870863,0.22341746201256057,0.04767759940329006,1259.4881930426614,16361.654857971382
1.5925744992672204,893.1928377804721,892.3675356012816,0.039615562185958846,0.0,0.1744690323504927,0.2233100057972182,0.04767710296815995,1259.412943248336,16374.092600638172
1.6023448949682462,893.299038100032,892.5027153631756,0.03996298314511053,0.0,0.17457638703302267,0.2232023360570306,0.047676604784745946,1259.337543461932,16386.517147481754
1.612115290669272,893.403581028971,892.6354254838683,0.040311091322444856,0.0,0.17468395353597668,0.22309445340176443,0.047676104870546375,1259.261994121567,16398.928493359843
1.621885686370298,893.5065150051021,892.765737688314,0.0406598848028675,0.0,0.17479173128088563,0.22298635842065903,0.047675603242590486,1259.1862956507134,16411.32663425324
1.631656082071324,893.6078870894191,892.8937216561048,0.04100936173605298,0.0,0.17489971970897034,0.22287805168297364,0.04767509991744849,1259.1104484585853,16423.711567228696
1.6414264777723495,893.7077430054442,893.0194450801114,0.041359520334720457,0.0,0.17500791828061552,0.22276953373851946,0.047674594911241486,1259.0344529405174,16436.08329040288
1.6511968734733755,893.8061271774376,893.1429737234218,0.04171035887295519,0.0,0.17511632647485767,0.22266080511817812,0.04767408823965119,1258.9583094783338,16448.441802907448
1.6609672691744015,893.9030827675075,893.2643714746323,0.04206187568457421,0.0,0.1752249437888867,0.22255186633440602,0.0476735799179296,1258.882018440706,16460.787104855175
1.6707376648754275,893.9986517116486,893.3837004015356,0.04241406916153544,0.0,0.17533376973756068,0.22244271788172557,0.04767306996090842,1258.8055801835021,16473.11919730711
1.6805080605764533,894.0928747547424,893.5010208032573,0.042766937752388774,0.0,0.17544280385293376,0.22233336023720326,0.047672558383008413,1258.7289950501277,16485.438082240744
1.690278456277479,894.1857914845514,893.616391260884,0.04312047996076819,0.0,0.17555204568379645,0.22222379386091512,0.04767204519824859,1258.6522633718557,16497.743762519116
1.700048851978505,894.2774403647328,893.7298686866287,0.04347469434392372,0.0,0.17566149479522822,0.22211401919639978,0.047671530420255175,1258.5753854681507,16510.036241860882
1.709819247679531,894.3678587669049,893.8415083715765,0.04382957951129225,0.0,0.175771150768162,0.22200403667109966,0.04767101406227054,1258.49836164698,16522.3155248113
1.7195896433805569,894.4570830017909,893.951364032053,0.044185134123106186,0.0,0.17588101319896032,0.2218938466967903,0.04767049613716189,1258.4211922051222,16534.58161671407
1.7293600390815826,894.545148349469,894.0594878546545,0.04454135688903888,0.0,0.17599108169900265,0.22178344966999844,0.04766997665742983,1258.343877428463,16546.834523684054
1.7391304347826086,894.6320890887522,894.1659305399813,0.0448982465668859,0.0,0.17610135589428386,0.22167284597240897,0.04766945563521677,1258.2664175922853,16559.074252580827
1.7489008304836346,894.7179385257278,894.2707413451103,0.04525580196128116,0.0,0.17621183542502306,0.22156203597126106,0.047668933082315186,1258.188812961552,16571.30081098301
1.7586712261846604,894.8027290214764,894.3739681248452,0.04561402192244704,0.0,0.17632251994528322,0.22145102001973396,0.04766840901017573,1258.1110637911802,16583.514207163433
1.7684416218856862,894.8864920189968,894.4756573717796,0.04597290534497764,0.0,0.1764334091226007,0.22133979845732232,0.04766788342991517,1258.0331703263082,16595.714450064996
1.7782120175867122,894.9692580693604,894.5758542552072,0.046332451166654055,0.0,0.17654450263762464,0.2212283716102018,0.047667356352324164,1257.9551328025573,16607.901549277314
1.7879824132877382,895.0510568571153,894.674602658915,0.04669265836729112,0.0,0.17665580018376592,0.2211167397915849,0.047666827787874975,1257.876951446284,16620.075515014065
1.797752808988764,895.1319172249641,894.7719452178882,0.047053525967614605,0.0,0.17676730146685557,0.22100490330206726,0.04766629774672887,1257.7986264748279,16632.236358091002
1.8075232046897896,895.2118671977354,894.8679233539629,0.04741505302816812,0.0,0.1768790062048121,0.22089286242996514,0.04766576623874353,1257.7201580967514,16644.384089904688
1.817293600390816,895.2909340056697,894.962577310454,0.047777238648248996,0.0,0.17699091412731777,0.22078061745164346,0.04766523327348025,1257.6415465120742,16656.51872241183
1.8270639960918416,895.3691441070397,895.0559461857897,0.048140081964872065,0.0,0.17710302497550345,0.2206681686318356,0.04766469886021092,1257.562791912501,16668.640268109284
1.836834391792868,895.4465232101239,895.1480679661818,0.04850358215176125,0.0,0.17721533850164184,0.2205555162239545,0.04766416300792502,1257.4838944816436,16680.748740014653
1.846604787493893,895.5230962945535,895.2389795573577,0.048867738418367355,0.0,0.17732785446884872,0.22044266047039554,0.0476636257253363,1257.4048543952367,16692.844151647485
1.85637518319492,895.5988876320483,895.3287168153845,0.04923255000891238,0.0,0.17744057265079238,0.22032960160283147,0.047663087020889436,1257.3256718213486,16704.926517011063
1.866145578895945,895.673920806562,895.4173145766084,0.0495980162014583,0.0,0.17755349283141056,0.22021633984249953,0.04766254690276652,1257.2463469205854,16716.99585057471
1.8759159745969711,895.7482187338526,895.504806686738,0.04996413630700154,0.0,0.17766661480463494,0.2201028754004809,0.04766200537889335,1257.1668798462913,16729.052167256694
1.885686370297997,895.8218036804938,895.5912260290929,0.0503309096685903,0.0,0.17777993837412298,0.21998920847797288,0.04766146245694566,1257.087270744742,16741.095482407633
1.895456765999023,895.8946972823451,895.6766045520455,0.050698335660466,0.0,0.17789346335299683,0.21987533926655364,0.04766091814435519,1257.007519755334,16753.12581179439
1.905227161700049,895.9669205624962,895.7609732956766,0.05106641368722701,0.0,0.1780071895635892,0.21976126794844025,0.0476603724483156,1256.927627010769,16765.143171584506
1.9149975574010747,896.0384939486983,895.8443624176681,0.05143514318301464,0.0,0.1781211168371961,0.21964699469673976,0.04765982537578828,1256.847592637232,16777.147578331078
1.9247679531021005,896.109437290301,895.9268012184557,0.05180452361072061,0.0,0.1782352450138356,0.21953251967569354,0.04765927693350801,1256.7674167545679,16789.13904895813
1.9345383488031265,896.1797698747059,896.0083181656623,0.052174554461215446,0.0,0.17834957394201395,0.21941784304091522,0.047658727127988514,1256.6870994764492,16801.117600746413
1.9443087445041525,896.2495104433524,896.0889409178327,0.05254523525259724,0.0,0.17846410347849673,0.21930296493962254,0.04765817596552788,1256.6066409105424,16813.08325131966
1.9540791402051785,896.3186772072486,896.1686963474898,0.05291656552946031,0.0,0.17857883348808704,0.21918788551086274,0.04765762345221382,1256.526041158669,16825.03601863126
1.963849535906204,896.387287862061,896.2476105635325,0.05328854486218314,0.0,0.1786937638434091,0.21907260488573227,0.04765706959392891,1256.4453003169624,16836.975920951354
1.97361993160723,896.4553596027753,896.3257089329929,0.05366117284623519,0.0,0.1788088944246976,0.2189571231875904,0.04765651439635558,1256.3644184760208,16848.902976854308
1.983390327308256,896.5229091379395,896.4030161021731,0.05403444910150186,0.0,0.17892422511959266,0.21884144053226753,0.04765595786498107,1256.2833957210546,16860.817205206604
1.9931607230092816,896.589952703505,896.479556017177,0.05440837327162741,0.0,0.17903975582294038,0.21872555702826782,0.04765540000510229,1256.202232132033,16872.718625155092
2.002931118710308,896.6565060762724,896.555351943857,0.05478294502337526,0.0,0.17915548643659834,0.21860947277696635,0.047654840821830455,1256.1209277838234,16884.6072561156
2.012701514411334,896.7225845869573,896.6304264871909,0.05515816404600492,0.0,0.17927141686924664,0.2184931878728013,0.04765428032009576,1256.0394827463297,16896.483117761927
2.02247191011236,896.7882031328853,896.7048016101049,0.05553403005066573,0.0,0.17938754703620355,0.21837670240346094,0.04765371850465183,1255.957897084625,16908.346230015137
2.0322423058133854,896.8533761903268,896.7784986517601,0.05591054276980622,0.0,0.17950387685924632,0.2182600164500657,0.04765315538008011,1255.8761708590823,16920.196613033233
2.042012701514411,896.9181178264836,896.8515383453168,0.05628770195659942,0.0,0.1796204062664366,0.21814313008734543,0.04765259095079414,1255.794304125501,16932.034287201117
2.051783097215437,896.9824417111346,896.9239408351918,0.05666550738438293,0.0,0.17973713519195045,0.21802604338381193,0.047652025221043746,1255.7122969352301,16943.859273120892
2.061553492916463,897.0463611279541,896.9957256938233,0.0570439588461141,0.0,0.17985406357591288,0.21790875640192717,0.047651458194919116,1255.6301493352887,16955.671591602448
2.071323888617489,897.1098889855083,897.0669119379567,0.05742305615383926,0.0,0.1799711913642369,0.21779126919826666,0.04765088987635476,1255.5478613684825,16967.471263654345
2.0810942843185147,897.1730378279428,897.1375180444664,0.05780279913817725,0.0,0.1800885185084664,0.21767358182367896,0.04765032026913342,1255.465433073517,16979.25831047501
2.090864680019541,897.2358198453677,897.2075619657264,0.05818318764781631,0.0,0.18020604496562376,0.21755569432344066,0.04764974937688984,1255.3828644851103,16991.032753444168
2.1006350757205667,897.2982468839504,897.2770611445401,0.05856422154902425,0.0,0.18032377069806094,0.21743760673740736,0.04764917720311445,1255.3001556340994,17002.79461411458
2.1104054714215925,897.3603304557242,897.3460325286468,0.05894590072517164,0.0,0.18044169567331483,0.21731931910016086,0.047648603751157016,1255.2173065475456,17014.54391420402
2.1201758671226183,897.4220817481213,897.4144925848117,0.059328225076267414,0.0,0.18055981986396627,0.21720083144115218,0.04764802902423012,1255.134317248837,17026.280675587524
2.129946262823644,897.4835116332373,897.482457312515,0.059711194518506754,0.0,0.18067814324750284,0.21708214378484106,0.047647453025412595,1255.0511877577883,17038.004920289866
2.1397166585246703,897.544630676837,897.5499422572494,0.060094808983830815,0.0,0.1807966658061852,0.21696325615083165,0.04764687575765289,1254.9679180907378,17049.716670478283
2.149487054225696,897.6054491471075,897.6169625234384,0.06047906841949801,0.0,0.18091538752691705,0.21684416855400465,0.0476462972237723,1254.884508260642,17061.41594845543
2.159257449926722,897.6659770231673,897.6835327869841,0.06086397278766666,0.0,0.1810343084011184,0.21672488100464612,0.04764571742646821,1254.8009582771665,17073.10277665257
2.169027845627748,897.726224003337,897.7496673074581,0.06124952206498849,0.0,0.18115342842460216,0.2166053935085727,0.04764513636831713,1254.7172681467773,17084.777177622964
2.178798241328774,897.786199513181,897.815379939943,0.06163571624221271,0.0,0.18127274759745418,0.21648570606725362,0.047644554051777754,1254.6334378728272,17096.439174035477
2.1885686370298,897.845912713326,897.8806841465343,0.062022555323800785,0.0,0.1813922659239161,0.21636581867792964,0.04764397047919391,1254.5494674556405,17108.088788668403
2.198339032730825,897.9053725070622,897.945593007515,0.062410039327550855,0.0,0.18151198341227157,0.21624573133372874,0.04764338565279745,1254.4653568925967,17119.726044403476
2.208109428431851,897.9645875477363,898.0101192322077,0.06279816828423253,0.0,0.18163190007473534,0.21612544402377865,0.04764279957471103,1254.3811061782094,17131.350964220084
2.217879824132877,898.02356624594,898.0742751695184,0.06318694223723055,0.0,0.18175201592734513,0.21600495673331685,0.047642212246950845,1254.2967153042068,17142.963571189648
2.227650219833903,898.0823167765026,898.1380728181753,0.0635763612421985,0.0,0.1818723309898566,0.21588426944379727,0.04764162367142932,1254.2121842596066,17154.563888470213
2.237420615534929,898.1408470852925,898.2015238366748,0.06396642536672091,0.0,0.18199284528564083,0.21576338213299437,0.0476410338499577,1254.127513030791,17166.15193930121
2.247191011235955,898.1991648958355,898.2646395529425,0.06435713468998475,0.0,0.18211355884158453,0.2156422947751046,0.04764044278424855,1254.04270160158,17177.727746998356
2.256961406936981,898.2572777157523,898.3274309737136,0.06474848930245891,0.0,0.18223447168799295,0.215521007340845,0.04763985047591828,1253.9577499532995,17189.29133494878
2.2667318026380068,898.3151928430266,898.389908793646,0.06514048930558258,0.0,0.18235558385849523,0.2153995197975495,0.0476392569264895,1253.8726580648536,17200.842726606243
2.276502198339033,898.3729173721041,898.4520834041675,0.0655331348114613,0.0,0.18247689538995215,0.2152778321092625,0.04763866213739339,1253.7874259127882,17212.38194548658
2.2862725940400583,898.4304581998321,898.51396490207,0.06592642594257103,0.0,0.18259840632236646,0.21515594423682993,0.04763806610997198,1253.7020534713583,17223.90901516324
2.296042989741085,898.4878220312431,898.5755630978518,0.06632036283147016,0.0,0.18272011669879543,0.21503385613798848,0.0476374688454804,1253.6165407125916,17235.42395926302
2.3058133854421103,898.5450153851891,898.6368875238204,0.0667149456205184,0.0,0.18284202656526552,0.2149115677674518,0.04763687034508901,1253.5308876063486,17246.92680146189
2.315583781143136,898.6020445998322,898.6979474419568,0.06711017446160357,0.0,0.1829641359706896,0.21478907907699502,0.04763627060988553,1253.4450941203854,17258.417565481028
2.3253541768441623,898.6589158379958,898.7587518515525,0.06750604951587497,0.0,0.18308644496678594,0.21466639001553683,0.04763566964087713,1253.3591602204099,17269.89627508292
2.335124572545188,898.7156350923838,898.8193094966209,0.06790257095348372,0.0,0.18320895360799955,0.21454350052921958,0.0476350674389924,1253.2730858701414,17281.362954067627
2.344894968246214,898.7722081906714,898.8796288730923,0.06829973895332998,0.0,0.18333166195142533,0.2144204105614871,0.04763446400508334,1253.1868710313645,17292.8176262692
2.35466536394724,898.8286408004751,898.9397182357956,0.06869755370281634,0.0,0.18345457005673343,0.21429712005316093,0.04763385933992723,1253.1005156639844,17304.260315552172
2.364435759648265,898.8849384342046,898.9995856052326,0.06909601539760761,0.0,0.18357767798609628,0.21417362894251413,0.04763325344422855,1253.0140197260803,17315.69104580821
2.374206155349292,898.9411064538049,899.0592387741518,0.06949512424139698,0.0,0.18370098580411762,0.2140499371653436,0.04763264631862072,1252.9273831739554,17327.109840952864
2.383976551050317,898.9971500753924,899.1186853139233,0.06989488044567736,0.0,0.18382449357776315,0.2139260446550404,0.047632037963667925,1252.840605962189,17338.516724922443
2.393746946751344,899.0530743737917,899.1779325807223,0.07029528422951971,0.0,0.18394820137629336,0.21380195134265814,0.04763142837986681,1252.7536880436844,17349.911721671015
2.403517342452369,899.1088842869782,899.2369877215244,0.07069633581935546,0.0,0.18407210927119735,0.21367765715698017,0.04763081756764815,1252.666629369717,17361.294855167464
2.413287738153396,899.1645846204324,899.2958576799168,0.07109803544876588,0.0,0.18419621733612912,0.21355316202458433,0.04763020552737852,1252.5794298899807,17372.666149392735
2.423058133854421,899.2201800514118,899.3545492017297,0.07150038335827524,0.0,0.18432052564684462,0.2134284658699068,0.04762959225936185,1252.4920895526345,17384.025628337113
2.432828529555447,899.275675133148,899.4130688404912,0.07190337979515048,0.0,0.18444503428114117,0.21330356861530386,0.04762897776384102,1252.404608304345,17395.373315997636
2.4425989252564726,899.3310742989719,899.4714229627103,0.0723070250132046,0.0,0.18456974331879766,0.2131784701811126,0.047628362040999336,1252.316986090331,17406.70923637561
2.452369320957499,899.386381866378,899.52961775299,0.0727113192726056,0.0,0.1846946528415166,0.2130531704857096,0.047627745090962036,1252.229222854405,17418.033413474208
2.4621397166585246,899.4416020410304,899.5876592189733,0.07311626283968972,0.0,0.1848197629328675,0.21292766944556868,0.04762712691379773,1252.1413185390147,17429.34587129618
2.4719101123595504,899.4967389207198,899.6455531961271,0.07352185598677927,0.0,0.18494507367823168,0.2128019669753171,0.0476265075095198,1252.053273085283,17440.64663384164
2.4816805080605766,899.5517964992797,899.7033053523634,0.07392809899200473,0.0,0.18507058516474803,0.21267606298779013,0.04762588687808776,1251.9650864330476,17451.93572510596
2.4914509037616024,899.6067786704652,899.7609211925022,0.07433499213913093,0.0,0.18519629748126057,0.21254995739408503,0.047625265019408634,1251.8767585208986,17463.213169077746
2.501221299462628,899.6616892318086,899.8184060625775,0.07474253571738748,0.0,0.18532221071826685,0.21242365010361297,0.04762464193333822,1251.7882892862165,17474.478989736916
2.510991695163654,899.7165318884546,899.8757651539873,0.07515073002130282,0.0,0.1854483249678675,0.21229714102415048,0.04762401761968241,1251.6996786652082,17485.733211052855
2.52076209086468,899.7713102569879,899.9330035074898,0.07555957535054211,0.0,0.18557464032371732,0.21217043006188924,0.04762339207819839,1251.6109265929438,17496.97585698265
2.530532486565706,899.8260278692607,899.9901260170469,0.07596907200974856,0.0,0.18570115688097683,0.21204351712148498,0.047622765308595924,1251.5220330033903,17508.206951469445
2.540302882266732,899.8806881762307,900.0471374335142,0.07637922030838842,0.0,0.18582787473626544,0.21191640210610546,0.047622137310538465,1251.4329978294468,17519.42651844084
2.550073277967757,899.9352945518208,900.1040423681795,0.07679002056059885,0.0,0.18595479398761522,0.21178908491747722,0.04762150808364441,1251.3438210029772,17530.634581807408
2.559843673668784,899.9898502968114,900.1608452961498,0.07720147308503936,0.0,0.18608191473442576,0.2116615654559314,0.047620877627488165,1251.2545024548438,17541.8311654613
2.569614069369809,900.0443586427775,900.217550559584,0.0776135782047455,0.0,0.18620923707741985,0.2115338436204489,0.047620245941601316,1251.1650421149388,17553.01629327489
2.579384465070836,900.0988227560847,900.2741623707732,0.07802633624698632,0.0,0.18633676111860023,0.2114059193087043,0.0476196130254737,1251.075439912216,17564.189989099577
2.589154860771861,900.1532457419564,900.3306848150663,0.07843974754312319,0.0,0.18646448696120668,0.2112777924171094,0.04761897887855448,1250.9856957747224,17575.352276764617
2.598925256472887,900.2076306486297,900.3871218536384,0.07885381242847242,0.0,0.18659241470967436,0.21114946284085545,0.047618343500253214,1250.8958096296274,17586.503180076073
2.608695652173913,900.2619804716136,900.4434773261004,0.07926853124216901,0.0,0.18672054446959246,0.21102093047395543,0.047617706889940895,1250.805781403254,17597.642722815843
2.618466047874939,900.3162981580708,900.4997549529478,0.07968390432703308,0.0,0.18684887634766367,0.210892195209285,0.04761706904695095,1250.7156110211076,17608.77092874078
2.6282364435759646,900.3705866113376,900.5559583378446,0.08009993202943819,0.0,0.18697741045166416,0.2107632569386232,0.04761642997058024,1250.625298407905,17619.887821581924
2.638006839276991,900.4248486956061,900.6120909697379,0.08051661469918113,0.0,0.1871061468904042,0.21063411555269254,0.04761578966009012,1250.5348434876032,17630.993425043787
2.6477772349780166,900.4790872407895,900.6681562248009,0.08093395268935348,0.0,0.18723508577368897,0.2105047709411987,0.047615148114707316,1250.444246183428,17642.08776280379
2.6575476306790424,900.5333050475942,900.7241573681971,0.08135194635621433,0.0,0.18736422721228008,0.21037522299286968,0.04761450533362497,1250.3535064179018,17653.170858511745
2.667318026380068,900.5875048928256,900.7800975556626,0.08177059605906417,0.0,0.18749357131785724,0.21024547159549473,0.04761386131600357,1250.2626241128712,17664.242735789503
2.677088422081094,900.6416895349547,900.8359798348974,0.0821899021601196,0.0,0.18762311820298028,0.21011551663596298,0.04761321606097191,1250.1715991895348,17675.30341823066
2.68685881778212,900.6958617199779,900.8918071467631,0.08260986502438876,0.0,0.18775286798105117,0.20998535800030185,0.04761256956762803,1250.0804315684713,17686.35292940039
2.696629213483146,900.7500241875998,900.9475823262746,0.08303048501954698,0.0,0.18788282076627652,0.20985499557371545,0.04761192183504016,1249.9891211696654,17697.391292835426
2.706399609184172,900.8041796777795,901.0033081033839,0.08345176251581284,0.0,0.18801297667362973,0.20972442924062265,0.04761127286224768,1249.8976679125365,17708.418532044125
2.716170004885198,900.8583309376743,901.0589871035423,0.08387369788582372,0.0,0.18814333581881337,0.20959365888469564,0.04761062264826205,1249.8060717159658,17719.43467050668
2.725940400586224,900.9124807290264,901.1146218480351,0.08429629150451128,0.0,0.1882738983182213,0.20946268438889817,0.047609971192067765,1249.714332498323,17730.439731675488
2.7357107962872496,900.9666318360364,901.1702147540798,0.08471954374897585,0.0,0.1884046642889005,0.2093315056355245,0.04760931849262329,1249.6224501774952,17741.43373897564
2.745481191988276,901.0207870737746,901.2257681346766,0.0851434549983602,0.0,0.18853563384851282,0.20920012250623807,0.047608664548862055,1249.530424670914,17752.416715805586
2.755251587689301,901.0749492971804,901.2812841982029,0.08556802563372128,0.0,0.18866680711529607,0.20906853488211122,0.0476080093596934,1249.4382558955833,17763.38868553794
2.765021983390328,901.1291214107105,901.3367650477421,0.085993256037901,0.0,0.1887981842080247,0.208936742643665,0.04760735292400359,1249.345943768109,17774.349671520493
2.774792379091353,901.1833063786961,901.3922126801372,0.08641914659539414,0.0,0.1889297652459697,0.20880474567090998,0.047606695240656784,1249.2534882047273,17785.2996970774
2.784562774792379,901.2375072364777,901.447628984761,0.08684569769221437,0.0,0.18906155034885797,0.20867254384338743,0.0476060363084961,1249.160889121334,17796.23878551056
2.794333170493405,901.291727102387,901.503015741995,0.08727290971575698,0.0,0.1891935396368307,0.2085401370402118,0.04760537612634464,1249.068146433516,17807.16696010123
2.804103566194431,901.3459691906572,901.558374621412,0.08770078305465848,0.0,0.18932573323040056,0.20840752514011393,0.047604714693006575,1248.9752600565803,17818.08424411185
2.8138739618954567,901.4002368253414,901.6137071796569,0.0881293180986525,0.0,0.18945813125040817,0.2082747080214856,0.047604052007268235,1248.882229905588,17828.990660788153
2.8236443575964825,901.45453345533,901.6690148580282,0.08855851523842141,0.0,0.18959073381797686,0.20814168556242515,0.04760338806789928,1248.7890558953852,17839.886233361478
2.833414753297508,901.5088626705622,901.7242989797584,0.08898837486544346,0.0,0.18972354105446643,0.20800845764078482,0.04760272287365385,1248.6957379406376,17850.770985051455
2.8431851489985345,901.5632282195324,901.7795607470076,0.089418897371835,0.0,0.18985655308142504,0.20787502413421927,0.04760205642327178,1248.602275955865,17861.64493906893
2.8529555446995603,901.6176340281992,901.8348012375791,0.08985008315018678,0.0,0.18998977002053977,0.20774138492023617,0.0476013887154799,1248.5086698554776,17872.508118619255
2.862725940400586,901.6720842204097,901.8900214013833,0.09028193259339518,0.0,0.19012319199358513,0.20760753987624816,0.04760071974899329,1248.414919553813,17883.360546905933
2.8724963361016123,901.7265831399621,901.9452220566823,0.09071444609448659,0.0,0.19025681912236994,0.20747348887962722,0.04760004952251669,1248.321024965175,17894.202247134657
2.882266731802638,901.7811353744271,902.0004038861581,0.0911476240464355,0.0,0.19039065152868193,0.20733923180776057,0.04759937803474587,1248.2269860038737,17905.03324251776
2.892037127503664,901.8357457808627,902.0555674328672,0.09158146684197595,0.0,0.1905246893342306,0.20720476853810899,0.04759870528436913,1248.1328025842672,17915.853556279097
2.9018075232046896,901.8904195135555,902.1107130961584,0.09201597487340574,0.0,0.19065893266058787,0.20707009894826722,0.04759803127006881,1248.0384746208044,17926.663211659456
2.9115779189057154,901.9451620539267,902.1658411276549,0.09245114853238387,0.0,0.19079338162912626,0.20693522291602637,0.04759735599052286,1247.9440020280706,17937.462231922444
2.9213483146067416,901.999979242744,902.2209516274279,0.09288698820972102,0.0,0.19092803636095568,0.20680014031943864,0.047596679444406494,1247.8493847208322,17948.25064036096
2.9311187103077674,902.0548773147797,902.2760445405202,0.0933234942951633,0.0,0.19106289697685747,0.206664851036884,0.04759600163039387,1247.7546226140857,17959.02846030426
2.940889106008793,902.1098629360522,902.3311196540146,0.09376066717717021,0.0,0.19119796359721714,0.20652935494713875,0.04759532254715981,1247.6597156231064,17969.795715125685
2.9506595017098194,902.1649432437864,902.3861765948875,0.09419850724268702,0.0,0.19133323634195515,0.20639365192944573,0.04759464219338161,1247.5646636634976,17980.552428251045
2.960429897410845,902.2201258892172,902.4412148289357,0.09463701487691324,0.0,0.19146871533045678,0.20625774186358575,0.047593960567740824,1247.4694666512435,17991.298623167782
2.970200293111871,902.2754190833492,902.4962336611269,0.09507619046306873,0.0,0.1916044006815009,0.20612162462994982,0.04759327766892509,1247.3741245027588,18002.034323434902
2.9799706888128967,902.3308316457667,902.5512322377874,0.09551603438215925,0.0,0.19174029251318894,0.20598530010961136,0.04759259349562997,1247.2786371349418,18012.759552693766
2.9897410845139225,902.3863730565674,902.6062095511196,0.09595654701274478,0.0,0.19187639094287443,0.20584876818439793,0.04759190804656074,1247.1830044652252,18023.47433467975
2.9995114802149487,902.4420535114591,902.6611644466263,0.0963977287307136,0.0,0.19201269608709443,0.20571202873696073,0.04759122132043413,1247.0872264116254,18034.178693234884
3.0092818759159745,902.4978839800219,902.7160956341154,0.09683957990906683,0.0,0.19214920806150407,0.2055750816508413,0.04759053331597998,1246.9913028927901,18044.87265232148
3.0190522716170003,902.5538762670906,902.771001703059,0.09728210091771891,0.0,0.19228592698081587,0.20543792681053283,0.04758984403194281,1246.8952338280433,18055.556236036813
3.0288226673180265,902.6100430771503,902.8258811432014,0.09772529212332032,0.0,0.19242285295874598,0.20530056410153522,0.047589153467083055,1246.7990191374229,18066.229468628917
3.0385930630190523,902.6663980815737,902.8807323714186,0.09816915388911061,0.0,0.19255998610796932,0.20516299341040026,0.047588461620178206,1246.7026587417138,18076.89237451354
3.048363458720078,902.7229559884365,902.9355537659665,0.09861368657481144,0.0,0.19269732654008712,0.20502521462476467,0.04758776849002353,1246.6061525624716,18087.54497829228
3.058133854421104,902.7797326145578,902.9903437093693,0.09905889053657031,0.0,0.19283487436560962,0.20488722763336759,0.047587074075432355,1246.5095005220346,18098.18730477197
3.0679042501221296,902.836744959295,903.0451006413223,0.09950476612696854,0.0,0.19297262969395843,0.20474903232604813,0.047586378375235834,1246.412702543522,18108.819378985336
3.077674645823156,902.8940112794951,903.0998231230864,0.09995131369510818,0.0,0.19311059263349253,0.2046106285937186,0.047585681388282036,1246.3157585508152,18119.441226212923
3.0874450415241816,902.9515511648642,903.1545099149383,0.10039853358679542,0.0,0.19324876329156399,0.204472016328308,0.04758498311343423,1246.2186684685155,18130.05287200632
3.0972154372252074,903.009385612856,903.209160068291,0.10084642614484025,0.0,0.19338714177460836,0.20433319542266962,0.0475842835495682,1246.1214322218798,18140.65434221268
3.1069858329262336,903.0675371020088,903.2637730341041,0.10129499170949403,0.0,0.19352572818827735,0.20419416577044613,0.04758358269556835,1246.0240497367233,18151.24566300047
3.1167562286272594,903.1260296624837,903.318348789156,0.10174423061904961,0.0,0.1936645226376205,0.2040549272658845,0.04758288055032249,1245.9265209392856,18161.826860886442
3.126526624328285,903.1848889423626,903.3728879816084,0.10219414321063079,0.0,0.1938035252273244,0.20391547980359245,0.04758217711271502,1245.8288457560582,18172.39796276374
3.136297020029311,903.2441422680809,903.4273920970771,0.10264472982119961,0.0,0.1939427360620179,0.2037758232782279,0.04758147238161826,1245.7310241135604,18182.958995931036
3.1460674157303368,903.3038186971819,903.4818636460706,0.10309599078881193,0.0,0.19408215524665257,0.20363595758411154,0.047580766355881696,1245.6330559380624,18193.509988122543
3.155837811431363,903.3639490614167,903.5363063731929,0.10354792645415288,0.0,0.19422178288696806,0.20349588261475327,0.04758005903431889,1245.5349411552465,18204.0509675388
3.1656082071323888,903.4245659980611,903.5907254878825,0.10400053716238375,0.0,0.19436161909005192,0.20335559826228236,0.04757935041569174,1245.4366796897984,18214.58196287794
3.1753786028334146,903.4857039672215,903.6451279156897,0.10445382326533216,0.0,0.19450166396500335,0.20321510441677204,0.04757864049869184,1245.3382714649242,18225.103003367265
3.185148998534441,903.54739925284,903.6995225681612,0.10490778512405417,0.0,0.1946419176237099,0.20307440096544896,0.04757792928191873,1245.2397164017832,18235.614118794812
3.1949193942354666,903.6096899451111,903.7539206283335,0.105362423111795,0.0,0.19478238018174485,0.20293348779177978,0.047577216763854735,1245.1410144188353,18246.115339540585
3.2046897899364923,903.6726159021116,903.8083358476321,0.10581773761736973,0.0,0.1949230517593922,0.20279236477442836,0.04757650294283631,1245.0421654310928,18256.606696607112
3.214460185637518,903.7362186886086,903.8627848487012,0.10627372904897832,0.0,0.19506393248280293,0.20265103178607863,0.04757578781702162,1244.9431693492788,18267.088221648894
3.224230581338544,903.8005414902857,903.9172874273789,0.10673039783846129,0.0,0.19520502248528518,0.20250948869212185,0.047575071384354434,1244.8440260788866,18277.559947000344
3.23400097703957,903.8656290020007,903.9718668457745,0.10718774444599172,0.0,0.1953463219087266,0.20236773534920896,0.04757435364252428,1244.7447355191434,18288.021905701728
3.243771372740596,903.9315272891721,904.0265501072745,0.10764576936518665,0.0,0.1954878309051438,0.20222577160367355,0.04757363458892297,1244.6452975618809,18298.474131522664
3.2535417684416217,903.998283621975,904.0813682034195,0.10810447312860813,0.0,0.1956295496383499,0.20208359728983483,0.04757291422059784,1244.5457120903204,18308.91665898266
3.263312164142648,904.0659462827064,904.1363563220218,0.10856385631360761,0.0,0.19577147828572627,0.20194121222819436,0.04757219253420189,1244.4459789777811,18319.349523368237
3.2730825598436737,904.1345643474201,904.1915540057786,0.10902391954845314,0.0,0.19591361704007978,0.20179861622354564,0.04757146952594149,1244.3460980863276,18329.772760746164
3.2828529555446995,904.2041874437302,904.2470052510124,0.10948466351866261,0.0,0.19605596611156256,0.2016558090630202,0.047570745191522185,1244.2460692653692,18340.186407972364
3.292623351245725,904.2748654874773,904.3027585371302,0.10994608897345094,0.0,0.196198525729626,0.20151279051409832,0.04757001952609331,1244.1458923502364,18350.59050269612
3.302393746946751,904.3466484017282,904.358866778929,0.11040819673218695,0.0,0.19634129614497803,0.20136956032261696,0.04756929252419235,1244.0455671607535,18360.985083359243
3.3121641426477773,904.4195858222857,904.4153871959821,0.11087098769074319,0.0,0.1964842776315071,0.20122611821081046,0.04756856417968991,1243.9450934998358,18371.370189189947
3.321934538348803,904.4937267944808,904.4723810959258,0.11133446282761632,0.0,0.19662747048813717,0.2010824638754223,0.04756783448573636,1243.8444711521365,18381.745860191273
3.331704934049829,904.569119466469,904.5299135714281,0.11179862320969021,0.0,0.1967708750405734,0.20093859698592695,0.04756710343471108,1243.743699882773,18392.11213712397
3.341475329750855,904.6458107845303,904.5880531137839,0.11226346999751516,0.0,0.1969144916429015,0.2007945171829009,0.04756637101817547,1243.642779436159,18402.469061483862
3.351245725451881,904.7238461959471,904.646871149268,0.11272900444998167,0.0,0.19705832067900292,0.20065022407658076,0.047565637226830604,1243.5417095349708,18412.81667547382
3.3610161211529066,904.8032693649128,904.7064415073899,0.11319522792827706,0.0,0.19720236256375212,0.20050571724564262,0.04756490205048039,1243.440489879272,18423.155021970593
3.3707865168539324,904.8841219065928,904.766839832833,0.1136621418990259,0.0,0.19734661774396642,0.20036099623623305,0.047564165478001186,1243.339120145817,18433.484144486752
3.380556912554958,904.9664431439506,904.828142954973,0.11412974793653363,0.0,0.19749108669908294,0.20021606056127705,0.04756342749731832,1243.2375999875535,18443.804087128217
3.3903273082559844,905.0502698912853,904.8904282303153,0.1145980477240716,0.0,0.19763576994154508,0.2000709097000819,0.04756268809539009,1243.1359290333353,18454.114894547827
3.40009770395701,905.1356362676325,904.9537728739137,0.11506704305416396,0.0,0.1977806680168851,0.19992554309824886,0.047561947258199525,1243.034106887856,18464.41661189547
3.409868099658036,905.2225735423199,905.0182532957964,0.11553673582785895,0.0,0.1979257815034989,0.1997799601678986,0.04756120497075393,1242.9321331318074,18474.709284765417
3.419638495359062,905.311110014061,905.0839444576799,0.11600712805298871,0.0,0.19807111101211297,0.19963416028820846,0.04756046121709225,1242.8300073222572,18484.992959141386
3.429408891060088,905.4012709240803,905.1509192638864,0.11647822184144248,0.0,0.19821665718495168,0.1994881428062548,0.047559715980299865,1242.72772899325,18495.267681340083
3.4391792867611137,905.4930784029128,905.2192479985011,0.11695001940549647,0.0,0.19836242069461796,0.19934190703814605,0.04755896924253048,1242.62529765661,18505.533497953747
3.4489496824621395,905.586551449758,905.2889978185764,0.11742252305325843,0.0,0.19850840224270455,0.19919545227042956,0.04755822098503456,1242.522712802944,18515.790455792343
3.4587200781631653,905.6817059426047,905.3602323107552,0.11789573518329784,0.0,0.19865460255815742,0.1990487777617496,0.04755747118819357,1242.4199739028202,18526.038601825996
3.4684904738641915,905.7785546768016,905.4330111161955,0.11836965827854057,0.0,0.19880102239541558,0.19890188274473278,0.04755671983155936,1242.3170804081096,18536.27798312816
3.4782608695652173,905.8771074293371,905.5073896262605,0.11884429489951173,0.0,0.19894766253235177,0.19875476642807474,0.04755596689389789,1242.2140317534727,18546.50864682005
3.488031265266243,905.9773710458085,905.583418749218,0.11931964767701267,0.0,0.19909452376804085,0.19860742799880174,0.047555212353236474,1242.1108273579673,18556.730640016747
3.4978016609672693,906.079349546898,905.6611447462261,0.11979571930431526,0.0,0.1992416069203805,0.1984598666246816,0.047554456186913674,1242.0074666267656,18566.94400977532
3.507572056668295,906.1830442511265,905.7406091332475,0.12027251252895284,0.0,0.1993889128235884,0.1983120814567593,0.04755369837163122,1241.9039489529553,18577.14880304533
3.517342452369321,906.2884539106944,905.8218486442354,0.12075003014418055,0.0,0.19953644232559753,0.1981640716319951,0.04755293888350699,1241.800273719418,18587.345066621903
3.527112848070346,906.3955748573557,905.9048952499821,0.12122827498016789,0.0,0.19968419628536904,0.1980158362759857,0.04755217769812861,1241.6964403007619,18597.532847101622
3.5368832437713724,906.5044011554461,905.9897762264039,0.12170724989497769,0.0,0.19983217557013858,0.19786737450575162,0.047551414790606775,1241.592448065301,18607.712190841325
3.546653639472398,906.6149247594318,906.0765142657015,0.12218695776537283,0.0,0.1999803810526083,0.19771868543257842,0.04755065013562796,1241.488296377073,18617.883143919928
3.5564240351734244,906.7271356735978,906.1651276237693,0.12266740147748174,0.0,0.2001288136080944,0.197569768164902,0.04754988370750598,1241.383984597887,18628.045752103284
3.56619443087445,906.8410221117805,906.2556302973649,0.12314858391733981,0.0,0.20027747411163443,0.19742062181123254,0.0475491154802319,1241.279512089394,18638.20006081211
3.5759648265754764,906.95657065533,906.3480322248528,0.12363050796131299,0.0,0.20042636343505654,0.197271245483116,0.04754834542752213,1241.1748782151856,18648.346115092907
3.585735222276502,907.0737664077661,906.4423395047655,0.12411317646639608,0.0,0.20057548244400808,0.19712163829813437,0.04754757352286425,1241.0700823429163,18658.48395959188
3.595505617977528,907.1925931448575,906.5385546269322,0.12459659226036739,0.0,0.20072483199493724,0.19697179938295142,0.04754679973956057,1240.9651238464573,18668.613638531642
3.6052760136785538,907.3130334591034,906.6366767114821,0.12508075813176797,0.0,0.20087441293201846,0.19682172787641347,0.0475460240507691,1240.8600021080854,18678.735195690748
3.61504640937958,907.4350688978234,906.7367017516086,0.12556567681966344,0.0,0.201024226084008,0.196671422932718,0.04754524642954198,1240.754716520717,18688.848674385797
3.6248168050806058,907.5586800942637,906.8386228565482,0.12605135100313328,0.0,0.20117427226101262,0.19652088372466758,0.04754446684886123,1240.6492664902028,18698.954117456058
3.634587200781632,907.6838468913104,906.9424304917875,0.12653778329042228,0.0,0.20132455225115128,0.19637010944702918,0.047543685281671876,1240.5436514376897,18709.051567250433
3.644357596482657,907.8105484575557,907.048112714024,0.12702497620767608,0.0,0.20147506681708544,0.19621909932002307,0.04754290170091245,1240.4378708020743,18719.14106561662
3.654127992183684,907.9387633955923,907.1556553988904,0.12751293218717266,0.0,0.20162581669239077,0.19606785259296883,0.04754211607954295,1240.331924042563,18729.222653892328
3.663898387884709,908.0684698425299,907.2650424598767,0.12800165355494666,0.0,0.2017768025777385,0.1959163685481202,0.04754132839057025,1240.2258106413624,18739.29637289836
3.673668783585735,908.1996455628102,907.3762560572724,0.12849114251769597,0.0,0.2019280251368517,0.1957646465047231,0.04754053860707118,1240.119530106523,18749.362262933493
3.683439179286761,908.3322680334772,907.4892767962832,0.12898140114884052,0.0,0.20207948499219688,0.19561268582333757,0.04753974670221332,1240.0130819749643,18759.420363770925
3.693209574987786,908.4663145221112,907.6040839137611,0.1294724313735954,0.0,0.2022311827203676,0.1954604859104656,0.04753895264927358,1239.906465815715,18769.47071465618
3.702979970688813,908.6017621576812,907.7206554532331,0.1299642349529011,0.0,0.20238311884711185,0.19530804622353434,0.04753815642165475,1239.7996812333947,18779.513354306357
3.712750366389839,908.738587994598,907.8389684281145,0.13045681346603907,0.0,0.2025352938419498,0.1951553662762876,0.04753735799290014,1239.6927278719827,18789.548320910548
3.722520762090865,908.8767690702729,907.9589989731576,0.13095016829174402,0.0,0.20268770811232353,0.19500244564464425,0.047536557336706434,1239.5856054189087,18799.575652131345
3.73229115779189,909.0162824564931,908.0807224843195,0.13144430058760267,0.0,0.20284036199721373,0.19484928397308865,0.04753575442693485,1239.4783136095134,18809.59538510728
3.742061553492917,909.1571053049333,908.2041137473358,0.1319392112675093,0.0,0.20299325576015187,0.19469588098166435,0.04753494923762075,1239.3708522319298,18819.607556456125
3.7518319491939423,909.2992148871156,908.3291470553644,0.13243490097692287,0.0,0.20314638958154918,0.19454223647365057,0.04753414174298188,1239.2632211324374,18829.61220227888
3.761602344894968,909.4425886291226,908.4557963161234,0.13293137006564756,0.0,0.20329976355025597,0.1943883503440071,0.04753333191742527,1239.1554202213517,18839.609358164445
3.771372740595994,909.5872041413581,908.5840351489805,0.13342861855782506,0.0,0.2034533776542547,0.1942342225886848,0.04753251973555295,1239.0474494795171,18849.5990591948
3.78114313629702,909.7330392436292,908.713836972478,0.13392664611879915,0.0,0.20360723177038156,0.1940798533149072,0.047531705172166566,1238.9393089654736,18859.58133995064
3.790913531998046,909.8800719858084,908.8451750827855,0.13442545201847547,0.0,0.20376132565295968,0.19392524275253933,0.04753088820227112,1238.8309988233827,18869.556234517397
3.800683927699072,910.0282806643146,908.9780227235739,0.13492503509076104,0.0,0.2039156589212151,0.19377039126667361,0.0475300688010777,1238.7225192917995,18879.523776491515
3.810454323400098,910.177643834622,909.1123531477914,0.13542539368862394,0.0,0.20407023104533303,0.193615299371575,0.04752924694400554,1238.6138707133916,18889.483998986998
3.820224719101124,910.3281403199916,909.2481396718108,0.13592652563426785,0.0,0.2042250413309974,0.1934599677461421,0.04752842260668332,1238.5050535457137,18899.43693464205
3.829995114802149,910.479749216586,909.3853557223923,0.13642842816386117,0.0,0.2043800889022404,0.19330439725105816,0.04752759576494995,1238.3960683731611,18909.38261562585
3.839765510503175,910.6324498951099,909.5239748768819,0.13693109786620553,0.0,0.2045353726824109,0.19314858894782289,0.04752676639485471,1238.2869159202305,18919.32107364532
3.849535906204201,910.7862219990836,909.6639708970349,0.13743453061466285,0.0,0.20469089137305005,0.19299254411987646,0.047525934472657065,1238.1775970662409,18929.252339951832
3.859306301905227,910.9410454398394,909.8053177568252,0.1379387214915937,0.0,0.2048466434304435,0.1928362642960472,0.047525099974826034,1238.0681128616727,18939.1764453479
3.869076697606253,911.0969003882916,909.9479896645641,0.13844366470448283,0.0,0.20500262703959304,0.19267975127657905,0.047524262878039285,1237.9584645463037,18949.09342019363
3.878847093307279,911.2537672635128,910.0919610796201,0.1389493534928476,0.0,0.20515884008532842,0.19252300716201937,0.04752342315918198,1237.8486535693396,18959.003294413007
3.888617489008305,911.4116267181136,910.2372067239927,0.13945578002493658,0.0,0.20531528012025044,0.19236603438527475,0.047522580795345465,1237.7386816117498,18968.906097499934
3.8983878847093294,911.5704596203949,910.3837015889617,0.13996293528313258,0.0,0.20547194432916885,0.19220883574717226,0.04752173576382584,1237.628550611048,18978.80185852392
3.908158280410357,911.7302470332149,910.5314209369895,0.14047080893687275,0.0,0.20562882948966663,0.19205141445589433,0.04752088804212248,1237.5182627887712,18988.690606135435
3.9179286761113823,911.8909701894771,910.6803402990249,0.14097938920179173,0.0,0.20578593192838904,0.19189377417068873,0.0475200376079366,1237.4078206809368,18998.572368570804
3.927699071812408,912.0526104641212,910.8304354673127,0.14148866268368618,0.0,0.2059432474726225,0.19173591905028875,0.047519184439169804,1237.2972271717842,19008.447173656663
3.9374694675134334,912.2151493424641,910.9816824837832,0.14199861420577714,0.0,0.20610077139669075,0.1915778538065163,0.047518328513922875,1237.1864855311267,19018.315048813816
3.94723986321446,912.3785683847068,911.1340576240548,0.14250922661763546,0.0,0.20625849836266083,0.19141958376357518,0.047517469810494685,1237.0755994556675,19028.176021060568
3.957010258915486,912.5428491863968,911.2875373770488,0.14302048058401268,0.0,0.2064164223548136,0.19126111492358022,0.047516608307381344,1236.964573114664,19038.030117015296
3.966780654616512,912.7079733345997,911.4420984201815,0.14353235435170783,0.0,0.2065745366072986,0.19110245403890186,0.047515743983275696,1236.8534112003401,19047.877362898376
3.976551050317538,912.8739223595107,911.5977175900637,0.1440448234924899,0.0,0.206732833524359,0.19094360869194119,0.047514876817067175,1236.7421189834752,19057.71778453325
3.986321446018564,913.0406776812046,911.7543718486054,0.14455786062000148,0.0,0.20689130459248264,0.19078458738297913,0.04751400678784208,1236.630702374623,19067.551407346622
3.996091841719589,913.2082205512033,911.9120382443956,0.14507143507849055,0.0,0.20704994028381132,0.19062539962676767,0.04751313387488438,1236.5191679914192,19077.37825636768
4.005862237420615,913.376531988518,912.0706938691968,0.1455855126011685,0.0,0.20720872995012488,0.19046605605854652,0.04751225805767706,1236.4075232324594,19087.19835622631
4.015632633121641,913.5455927098062,912.2303158093731,0.1461000549359785,0.0,0.2073676617067125,0.1903065685501732,0.04751137931590416,1236.295776358224,19097.011731150094
4.025403028822668,913.7153830532836,912.390881092052,0.14661501943659896,0.0,0.20752672230545663,0.19014695033704082,0.04751049762945353,1236.183936579521,19106.818404960148
4.035173424523693,913.8858828960261,912.5523666258055,0.14713035861661075,0.0,0.20768589699648585,0.18998721615642744,0.04750961297842033,1236.0720141538957,19116.618401065538
4.044943820224719,914.0570715643178,912.7147491356369,0.1476460196649475,0.0,0.20784516937781433,0.1898273823978595,0.04750872534311156,1235.9600204904104,19126.411742456323
4.0547142159257445,914.2289277367317,912.8780050920619,0.14816194392104742,0.0,0.20800452123247595,0.18966746726598105,0.04750783470405144,1235.847968263142,19136.19845169496
4.064484611626771,914.4014293396807,913.0421106340943,0.14867806630855882,0.0,0.20816393235279765,0.1895074909562845,0.04750694104198798,1235.735871533641,19145.978550906075
4.074255007327797,914.574553435253,913.2070414859819,0.14919431472704692,0.0,0.20832338035164036,0.18934747584387482,0.04750604433790067,1235.6237458824726,19155.7520617644
4.084025403028822,914.7482761012553,913.3727728675921,0.14971060940194858,0.0,0.20848284046068374,0.18918744668519014,0.04750514457300947,1235.511608549787,19165.519005480808
4.093795798729849,914.9225723035253,913.5392793984252,0.15022686219405057,0.0,0.2086422853161511,0.18902743083228363,0.04750424172878526,1235.399478584645,19175.27940278628
4.103566194430874,915.0974157607666,913.7065349953401,0.15074297587107516,0.0,0.20880168473277574,0.18886745845886463,0.047503335786961635,1235.2873770025355,19185.033273913712
4.1133365901319,915.2727788023864,913.8745127642118,0.15125884334558065,0.0,0.2089610054673148,0.1887075627967934,0.0475024267295485,1235.1753269501796,19194.78063857744
4.123106985832926,915.4486322201111,914.0431848859183,0.15177434688536043,0.0,0.20912021097352865,0.1885477803811112,0.04750151453884722,1235.0633538762825,19204.5215159504
4.132877381533952,915.6249451145056,914.2125224972681,0.15228935730489124,0.0,0.20927926115128037,0.18838815130095163,0.04750059919746767,1234.9514857063843,19214.255924638815
4.142647777234978,915.801684737937,914.3824955677399,0.1528037331491597,0.0,0.2094381120932696,0.1882287194528189,0.04749968068834715,1234.839753019359,19223.98388265436
4.152418172936004,915.9788163360133,914.5530727732175,0.15331731988439126,0.0,0.2095967158339082,0.18806953279172517,0.04749875899477126,1234.7281892224232,19233.70540738377
4.1621885686370295,916.1563029900846,914.7242213682571,0.15382994911380732,0.0,0.20975502010596278,0.18791064357456272,0.04749783410039687,1234.6168307207338,19243.42051555594
4.171958964338056,916.3341054640032,914.8959070588281,0.15434143784048468,0.0,0.20991296811181281,0.18775210858886146,0.04749690598927709,1234.5057170767996,19253.129223206484
4.181729360039082,916.5121820590213,915.0680938779192,0.15485158780359792,0.0,0.21007049831748054,0.18759398935877633,0.04749597464588839,1234.394891154029,19262.831545639998
4.191499755740107,916.6904884813915,915.2407440668675,0.15536018491863732,0.0,0.21022754427892518,0.18743635231881137,0.04749504005515968,1234.2843992377918,19272.527497390085
4.2012701514411335,916.8689777279454,915.4138179657685,0.1558669988563949,0.0,0.21038403451139842,0.18727926894448405,0.047494102202503455,1234.1742911264766,19282.21709217752
4.211040547142159,917.0475999955825,915.587273916797,0.156371782799309,0.0,0.21053989241383583,0.18712281582795454,0.04749316107384869,1234.0646201841978,19291.90034286685
4.220810942843185,917.2263026211732,915.7610681847143,0.15687427341679053,0.0,0.21069503626120087,0.18696707468570373,0.04749221665567544,1233.9554433461485,19301.57726142193
4.230581338544211,917.4050300587927,915.9351548991963,0.15737419110297496,0.0,0.21084937927826225,0.18681213228477847,0.04749126893505081,1233.8468210672104,19311.247858860963
4.240351734245237,917.5837239013849,916.1094860238528,0.1578712405204692,0.0,0.21100282980832546,0.18665808027408354,0.04749031789966597,1233.738817204393,19320.912145211732
4.250122129946263,917.7623229538331,916.2840113568712,0.15836511149156163,0.0,0.2111552915897862,0.18650501490785212,0.047489363537873835,1233.6314988241397,19330.570129467837
4.259892525647288,917.940763363897,916.4586785680517,0.1588554802735448,0.0,0.21130666415187893,0.18635303664992098,0.0474884058387269,1233.5249359265729,19340.221819546856
4.269662921348314,918.118978816511,916.6334332765609,0.15934201124684486,0.0,0.21145684333852538,0.18620224964990587,0.04748744479201471,1233.4192010804725,19349.867222251418
4.279433317049341,918.2969007954584,916.808219172979,0.15982435903330267,0.0,0.21160572196566502,0.18605276108589403,0.04748648038830022,1233.31436896524,19359.506343234312
4.289203712750366,918.474458914443,916.9829781881274,0.16030217104719627,0.0,0.21175319061287198,0.1859046803728491,0.04748551261895456,1233.2105158192837,19369.13918696872
4.298974108451392,918.6515813170863,917.1576507097529,0.16077509046373833,0.0,0.2118991385445216,0.1857581182414651,0.04748454147618927,1233.1077187981286,19378.765756724737
4.308744504152418,918.8281951424794,917.3321758464311,0.16124275956950382,0.0,0.21204345474947686,0.18561318569849847,0.04748356695308536,1233.0060552499363,19388.386054553263
4.318514899853444,919.0042270497379,917.5064917361269,0.16170482343763057,0.0,0.21218602908155826,0.18546999288631397,0.04748258904361858,1232.9056019207926,19398.000081278267
4.32828529555447,919.1796037917642,917.680535894799,0.16216093384912247,0.0,0.21232675347638572,0.18532864786605588,0.04748160774267997,1232.8064341067775,19407.607836498326
4.338055691255496,919.3542528253294,917.8542455984121,0.16261075336189854,0.0,0.21246552321407078,0.18518925535496558,0.047480623046091255,1232.7086247740808,19417.209318598034
4.3478260869565215,919.528102941923,918.027558289865,0.16305395941318845,0.0,0.21260223819226,0.18505191545334426,0.047479634950614524,1232.6122436719074,19426.804524769763
4.357596482657548,919.7010849018425,918.2004120008239,0.16349024833020345,0.0,0.21273680417071814,0.184916722399972,0.0474786434539558,1232.5173564652098,19436.393451045926
4.367366878358573,919.873132052911,918.3727457774028,0.1639193391201254,0.0,0.21286913394743356,0.18478376339600056,0.047477648554762206,1232.4240239151404,19445.976092341534
4.377137274059599,920.0441809151869,918.5445000981777,0.164340976914207,0.0,0.2129991484273927,0.18465311753617308,0.04747665025261284,1232.3323011342948,19455.552442506614
4.3869076697606255,920.2141717141064,918.7156172731962,0.16475493595229954,0.0,0.2131267775487447,0.1845248548826498,0.0474756485480032,1232.242236941327,19465.122494387713
4.396678065461651,920.3830488466398,918.8860418134743,0.16516102201285202,0.0,0.21325196103688965,0.18439903571090602,0.04747464344232363,1232.153873335477,19474.686239897448
4.406448461162677,920.5507612680718,919.0557207618739,0.1655590742179533,0.0,0.21337464896463473,0.1842757099495588,0.047473634937832174,1232.067245106232,19484.243670090822
4.416218856863702,920.7172627907133,919.2246039781206,0.16594896617140642,0.0,0.21349480210538063,0.18415491682716023,0.04747262303762231,1231.9823795872112,19493.794775246894
4.425989252564729,920.8825122898959,919.392644372896,0.1663306064178857,0.0,0.2136123920756292,0.18403668472966656,0.0474716077455863,1231.8992965568593,19503.339544954233
4.435759648265755,921.0464738166852,919.559798088238,0.16670393824052845,0.0,0.21372740127219605,0.1839210312632,0.04747058906637487,1231.8180082821916,19512.877968198653
4.44553004396678,921.209116620559,919.7260246237439,0.1670689388407482,0.0,0.21383982261771486,0.18380796350851727,0.047469567005354,1231.738519696128,19522.410033451593
4.455300439667806,921.3704150885982,919.8912869101312,0.16742561796598318,0.0,0.21394965913482458,0.18369747844679357,0.0474685415685595,1231.6608286942035,19531.93572875782
4.465070835368833,921.530348610334,920.0555513334531,0.16777401606727355,0.0,0.21405692337445176,0.18358956353131073,0.04746751276265038,1231.5849265329489,19541.45504182101
4.474841231069858,921.6889013792088,920.2187877146263,0.1681142020786753,0.0,0.21416163672673885,0.18348419737649882,0.04746648059486133,1231.510798310043,19550.96796008623
4.484611626770884,921.8460621426127,920.3809692498523,0.16844627091451,0.0,0.2142638286444085,0.18338135053454213,0.047465445072955414,1231.4384235054824,19560.47447081825
4.49438202247191,922.0018239127284,920.5420724180457,0.1687703407791439,0.0,0.21436353580794829,0.1832809863301645,0.04746440620517706,1231.3677765632885,19569.974561175062
4.504152418172936,922.1561836500299,920.7020768615216,0.16908655037806056,0.0,0.21446080126016082,0.18318306172605034,0.04746336400020625,1231.2988274945606,19579.46821827603
4.513922813873962,922.3091419304221,920.8609652460432,0.1693950561098937,0.0,0.21455567353480162,0.18308752819417856,0.047462318467114,1231.2315424846452,19588.955429264355
4.523693209574987,922.4607026057628,921.0187231059219,0.16969602930765362,0.0,0.21464820580047847,0.18299433257189615,0.04746126961531955,1231.1658844896708,19598.43618136371
4.5334636052760136,922.6108724660904,921.1753386793067,0.16998965358502205,0.0,0.21473845503715158,0.1829034178853922,0.04746021745454957,1231.1018138103623,19607.910461929045
4.54323400097704,922.7596609103505,921.3308027381295,0.17027612233095618,0.0,0.21482648125865367,0.18281472412715327,0.047459161994799284,1231.0392886337863,19617.378258491608
4.553004396678065,922.9070796309227,921.4851084164778,0.17055563638390298,0.0,0.214912346790943,0.18272818897768717,0.04745810324629596,1230.9782655362594,19626.839558798532
4.562774792379091,923.0531423158423,921.6382510404674,0.17082840190596163,0.0,0.21499611561240167,0.182643748465203,0.04745704121946442,1230.9186999430199,19636.294350847158
4.572545188080117,923.1978643713571,921.7902279620363,0.1710946284679219,0.0,0.2150778527595701,0.18256133755985618,0.04745597592489492,1230.8605465423018,19645.74262291447
4.582315583781143,923.3412626663763,921.9410383984863,0.17135452734814502,0.0,0.21515762379923925,0.18248089070163723,0.04745490737331311,1230.8037596531678,19655.18436358206
4.592085979482169,923.4833552994675,922.0906832790812,0.17160831004191313,0.0,0.2152354943658538,0.18240234226295124,0.04745383557555209,1230.7482935478336,19664.619561756957
4.6018563751831945,923.6241613883516,922.2391650995762,0.17185618697311128,0.0,0.21531152976170156,0.18232562694841162,0.04745276054252659,1230.6941027302373,19674.048206688738
4.611626770884221,923.7637008812785,922.3864877851823,0.17209836639648032,0.0,0.21538579461624022,0.1822506801354985,0.047451682285208956,1230.6411421734058,19683.4702879833
4.621397166585247,923.9019943892818,922.5326565621901,0.17233505347649986,0.0,0.21545835260023535,0.1821774381604067,0.04745060081460706,1230.5893675186223,19692.88579561364
4.631167562286272,924.0390630380267,922.6776778382452,0.17256644952749411,0.0,0.2155292661899288,0.18210583855386442,0.04744951614174388,1230.5387352397372,19702.294719928068
4.6409379579872985,924.174928337809,922.8215590911058,0.1727927513990914,0.0,0.21559859647631288,0.18203582023184692,0.04744842827763871,1230.4892027760436,19711.69705165602
4.650708353688325,924.3096120701574,922.964308765583,0.1730141509910733,0.0,0.21566640301455767,0.18196732364613874,0.0474473372332899,1230.4407286371788,19721.092781911975
4.66047874938935,924.4431361894997,923.1059361782895,0.17323083488227214,0.0,0.2157327437088293,0.18190029089950496,0.04744624301965895,1230.393272483362,19730.48190219753
4.670249145090376,924.5755227383634,923.2464514297669,0.1734429840589023,0.0,0.21579767472796585,0.18183466583000638,0.04744514564765593,1230.346795184131,19739.864404402062
4.680019540791402,924.7067937746501,923.3858653235322,0.1736507737287107,0.0,0.21586125044778467,0.18177039406868348,0.04744404512812617,1230.3012588585248,19749.240280802034
4.689789936492428,924.8369713096158,923.5241892915793,0.17385437320852076,0.0,0.21592352341616622,0.18170742307446502,0.04744294147183796,1230.256626899393,19758.609524059284
4.699560332193454,924.9660772552809,923.661435325868,0.1740539458738604,0.0,0.21598454433740458,0.1816457021498104,0.0474418346894714,1230.2128639842829,19767.97212721832
4.709330727894479,925.0941333801128,923.7976159153559,0.17424964916060737,0.0,0.21604436207270072,0.18158518244020988,0.047440724791608144,1230.1699360750774,19777.328083702916
4.719101123595506,925.2211612719226,923.932743988139,0.1744416346096682,0.0,0.2161030236540109,0.18152581692033037,0.04743961178872206,1230.1278104083294,19786.677387312004
4.728871519296531,925.3471823070317,924.0668328582957,0.17463004794684403,0.0,0.216160574308815,0.18146756036924155,0.04743849569117073,1230.0864554779855,19796.020032215063
4.738641914997557,925.4722176248669,924.1998961770548,0.17481502919101774,0.0,0.21621705749367456,0.18141036933685306,0.04743737650918769,1230.0458410119888,19805.35601294708
4.748412310698583,925.596288107238,924.3319478879372,0.1749967127847641,0.0,0.2162725149347499,0.1813542021033929,0.047436254252875384,1230.0059379440313,19814.68532440315
4.758182706399609,925.7194143616384,924.4630021855388,0.17517522774223157,0.0,0.21632698667367772,0.18129901863352568,0.04743512893219878,1229.9667183815727,19824.00796183281
4.767953102100635,925.8416167079961,924.5930734776636,0.1753506978100187,0.0,0.21638051111748238,0.18124478052643792,0.04743400055697963,1229.9281555710486,19833.323920834126
4.777723497801661,925.962915168369,924.7221763505235,0.17552324163730978,0.0,0.21643312509136076,0.18119145096304962,0.047432869136891195,1229.890223861078,19842.633197347674
4.787493893502687,926.0833294591528,924.8503255367619,0.17569297295222866,0.0,0.21648486389339797,0.18113899465129574,0.047431734681453605,1229.8528986643266,19851.935787650345
4.797264289203713,926.2028789854223,924.9775358860677,0.17586000074182526,0.0,0.2165357613504109,0.18108737777027997,0.047430597200029644,1229.8161564185832,19861.231688349108
4.807034684904739,926.3215828370754,925.1038223381695,0.17602442943351537,0.0,0.21658584987424348,0.18103656791397713,0.047429456701821,1229.7799745475231,19870.520896374706
4.816805080605764,926.4394597865021,925.229199898023,0.17618635907628336,0.0,0.21663516051798898,0.1809865340350086,0.04742831319586494,1229.744331421524,19879.80340897535
4.826575476306791,926.5565282875389,925.3536836130168,0.17634588552020722,0.0,0.21668372303169256,0.18093724638893818,0.04742716669103138,1229.7092063188431,19889.079223710374
4.836345872007816,926.6728064754973,925.4772885520364,0.17650310059316676,0.0,0.21673156591717999,0.18088867647944148,0.04742601719602026,1229.6745793874043,19898.34833844397
4.846116267708842,926.7883121680948,925.6000297862478,0.1766580922738633,0.0,0.21677871648174243,0.18084079700461983,0.04742486471935938,1229.6404316073833,19907.610751338914
4.855886663409868,926.9030628671277,925.7219223714602,0.17681094486040239,0.0,0.21682520089044516,0.1807935818046904,0.04742370926940241,1229.6067447547528,19916.86646085034
4.865657059110894,927.0170757607721,925.8429813319573,0.1769617391340071,0.0,0.21687104421692524,0.18074700581118736,0.047422550854327276,1229.573501365879,19926.11546571961
4.87542745481192,927.1303677263876,925.9632216456795,0.17711055251739255,0.0,0.21691627049253323,0.1807010449978194,0.04742138948213482,1229.5406847032755,19935.357764968227
4.885197850512945,927.2429553337421,926.0826582306612,0.17725745922760405,0.0,0.21696090275375732,0.1806556763330448,0.04742022516064765,1229.5082787225513,19944.59335789182
4.894968246213971,927.3548548485766,926.201305932629,0.17740253042314316,0.0,0.21700496308787517,0.18061087773441925,0.047419057897509304,1229.476268040597,19953.82224405422
4.904738641914998,927.466082236436,926.3191795136739,0.17754583434526325,0.0,0.21704847267679692,0.18056662802475212,0.04741788770018355,1229.4446379050307,19963.04442328163
4.914509037616023,927.5766531667227,926.4362936419251,0.17768743645348717,0.0,0.21709145183911552,0.18052290689005607,0.047416714575953964,1229.4133741648923,19972.259895656854
4.924279433317049,927.6865830169149,926.5526628821485,0.17782739955533605,0.0,0.21713392007036103,0.18047969483929246,0.047415538531923665,1229.382463242592,19981.468661513663
4.934049829018075,927.7958868769139,926.6683016872063,0.17796578393036097,0.0,0.21717589608148732,0.18043697316588472,0.0474143595750152,1229.351892107089,19990.67072143121
4.943820224719101,927.9045795534868,926.7832243903151,0.17810264744859503,0.0,0.21721739783562757,0.18039472391096267,0.047413177711970615,1229.3216482482776,19999.866076228565
4.953590620420127,928.0126755747755,926.8974451980483,0.17823804568356358,0.0,0.21725844258316143,0.18035292982829576,0.047411992949351715,1229.2917196525498,20009.05472695935
4.963361016121153,928.1201891948526,927.0109781840297,0.17837203202003063,0.0,0.2172990468951488,0.18031157435085932,0.04741080529354039,1229.2620947794971,20018.236674906453
4.9731314118221785,928.2271343982933,927.1238372832664,0.17850465775658897,0.0,0.217339226695164,0.18027064155900083,0.047409614750739106,1229.232762539726,20027.411921576833
4.982901807523205,928.3335249047658,927.2360362870844,0.17863597220339011,0.0,0.21737899728962173,0.18023011615011425,0.04740842132697153,1229.2037122737254,20036.58046869646
4.99267220322423,928.4393741736052,927.347588838615,0.1787660227750669,0.0,0.21741837339661155,0.18018998340980605,0.047407225028083255,1229.1749337317733,20045.74231820531
5.002442598925256,928.5446954586463,927.4585084232602,0.17889485545055006,0.0,0.21745736917333913,0.18015022918445445,0.047406025974996484,1229.1464169745066,20054.89747225246
5.012212994626282,928.6495033568908,927.5688082669171,0.1790225258962378,0.0,0.21749599822368235,0.18011083987370866,0.04740482784823518,1229.1181499676954,20064.045933202047
5.021983390327308,928.7538118644217,927.6785016638328,0.17914908455668144,0.0,0.21753427359475322,0.18007180243401663,0.04740363326473251,1229.09012180631,20073.1877036471
5.031753786028334,928.8576335973008,927.7876019021852,0.17927457175387942,0.0,0.2175722078422448,0.1800331043131626,0.04740244219126987,1229.06232377415,20082.32278638368
5.04152418172936,928.9609809285832,927.8961220963041,0.17939902633516272,0.0,0.21760981306303573,0.17999473341763303,0.04740125459553174,1229.0347474737998,20091.45118440051
5.051294577430385,929.0638659928693,928.0040751851667,0.17952248574065494,0.0,0.21764710091613748,0.17995667809167018,0.04740007044609394,1229.0073848120417,20100.57290087448
5.061064973131412,929.1663006907991,928.111473931213,0.17964498606736165,0.0,0.21768408264259573,0.17991892709737178,0.04739888971241197,1228.980227985998,20109.687939166208
5.070835368832438,929.2682966934827,928.2183309194538,0.17976656213002715,0.0,0.21772076908438856,0.17988146959579368,0.04739771236480929,1228.9532694699724,20118.79630281568
5.080605764533464,929.3698654468759,928.3246585568583,0.17988724751899565,0.0,0.21775717070239553,0.1798442951289818,0.047396538374465697,1228.9265020029386,20127.897995538016
5.090376160234489,929.4710181760892,928.4304690719936,0.18000707465516108,0.0,0.21779329759346305,0.17980739360290776,0.047395367713405676,1228.8999185766593,20136.9930212193
5.100146555935515,929.5717658896313,928.535774514899,0.18012607484215956,0.0,0.21782915950661447,0.17977075527125974,0.047394200354486826,1228.8735124244001,20146.08138391249
5.109916951636542,929.6721193835925,928.6405867571804,0.18024427831598774,0.0,0.21786476585846112,0.1797343707200326,0.04739303627138836,1228.8472770102023,20155.16308783344
5.119687347337568,929.772089245761,928.7449174923042,0.1803617142921433,0.0,0.21790012574784481,0.17969823085288636,0.04739187543859962,1228.821206018689,20164.238137356966
5.129457743038593,929.8716858596738,928.8487782360785,0.18047841101042103,0.0,0.21793524796975253,0.1796623268772326,0.04739071783140872,1228.7952933453794,20173.306537013035
5.139228138739619,929.9709194086022,928.9521803273038,0.18059439577748884,0.0,0.21797014102854226,0.1796266502910097,0.047389563425891186,1228.769533087484,20182.36829148301
5.148998534440645,930.069799879476,929.0551349285838,0.18070969500738043,0.0,0.21800481315052264,0.17959119287010433,0.047388412198898805,1228.7439195351485,20191.423405595964
5.158768930141671,930.1683370667405,929.1576530272804,0.18082433425998867,0.0,0.2180392722959116,0.179555946656394,0.04738726412804843,1228.7184471631315,20200.471884325103
5.168539325842696,930.2665405761493,929.2597454366011,0.18093833827766062,0.0,0.21807352617020634,0.17952090394637799,0.04738611919171097,1228.6931106228917,20209.51373278424
5.178309721543722,930.3644198284937,929.3614227968085,0.18105173102000754,0.0,0.21810758223499907,0.1794860572803629,0.04738497736900045,1228.667904735062,20218.54895622435
5.188080117244748,930.4619840632706,929.4626955765431,0.18116453569703886,0.0,0.21814144771827268,0.179451399432168,0.04738383863976318,1228.6428244822855,20227.5775600302
5.197850512945774,930.5592423422873,929.5635740742463,0.18127677480067922,0.0,0.21817512962419466,0.17941692339933266,0.04738270298456703,1228.6178650024012,20236.59954971705
5.207620908646799,930.6562035532039,929.6640684196768,0.18138847013476245,0.0,0.21820863474243798,0.17938262239379626,0.04738157038469086,1228.5930215819587,20245.614930927437
5.217391304347826,930.7528764130151,929.7641885755104,0.18149964284358905,0.0,0.21824196965705658,0.17934848983302412,0.04738044082211398,1228.5682896500446,20254.623709427982
5.227161700048852,930.8492694714696,929.8639443390157,0.18161031343910786,0.0,0.21827514075493334,0.17931451933156053,0.04737931427950581,1228.5436647724052,20263.625891106338
5.236932095749878,930.9453911144358,929.963345343801,0.18172050182683971,0.0,0.21830815423383798,0.17928070469297205,0.04737819074021567,1228.519142645842,20272.621481968134
5.246702491450903,931.0412495672006,930.0624010616187,0.18183022733052612,0.0,0.21834101611008883,0.17924703990218674,0.04737707018826257,1228.4947190928824,20281.610488134036
5.256472887151929,931.1368528977152,930.1611208042274,0.1819395087156471,0.0,0.21837373222586381,0.1792135191181844,0.047375952608325354,1228.4703900566958,20290.59291583684
5.266243282852956,931.2322090197822,930.2595137253015,0.18204836421183132,0.0,0.2184063082561675,0.17918013666703067,0.04737483798573272,1228.4461515962473,20299.56877141865
5.276013678553982,931.3273256961838,930.3575888223846,0.18215681153421118,0.0,0.2184387497154705,0.17914688703523865,0.047373726306453576,1228.4219998816827,20308.538061328083
5.285784074255007,931.4222105417592,930.4553549388811,0.18226486790381208,0.0,0.21847106196404928,0.17911376486343022,0.047372617557087396,1228.3979311899188,20317.500792117586
5.295554469956033,931.5168710264198,930.5528207660778,0.18237255006696534,0.0,0.2185032502140225,0.17908076494030087,0.04737151172485481,1228.3739419004473,20326.45697044077
5.30532486565706,931.6113144781148,930.6499948451966,0.18247987431385632,0.0,0.21853531953511912,0.17904788219685247,0.04737040879758825,1228.350028491325,20335.406603049818
5.315095261358085,931.7055480857404,930.7468855694681,0.18258685649621484,0.0,0.2185672748601802,0.17901511170089285,0.04736930876372277,1228.3261875353487,20344.349696792946
5.32486565705911,931.7995789019993,930.8435011862275,0.1826935120442174,0.0,0.21859912099041576,0.17898244865177984,0.04736821161228701,1228.3024156964022,20353.286258611934
5.334636052760136,931.8934138462021,930.9398497990231,0.1827998559825947,0.0,0.21863086260041492,0.1789498883754121,0.04736711733289428,1228.2787097259732,20362.21629553968
5.344406448461163,931.9870597070247,931.0359393697403,0.1829059029460664,0.0,0.2186625042429474,0.1789174263194289,0.04736602591573378,1228.2550664598166,20371.13981469785
5.354176844162188,932.080523145207,931.1317777207304,0.18301166719402656,0.0,0.21869405035353193,0.17888505804864252,0.047364937351561984,1228.2314828147812,20380.056823294537
5.363947239863213,932.1738106962056,931.2273725369485,0.18311716262461844,0.0,0.21872550525481527,0.1788527792406605,0.04736385163169413,1228.207955785765,20388.967328622002
5.37371763556424,932.2669287727957,931.3227313680918,0.18322240278816734,0.0,0.2187568731607517,0.17882058568170686,0.047362768747995866,1228.184482442813,20397.87133805446
5.383488031265267,932.3598836676291,931.4178616307424,0.18332740090006225,0.0,0.21878815818061156,0.17878847326261493,0.047361688692875034,1228.1610599283317,20406.76885904591
5.393258426966292,932.4526815557349,931.5127706105017,0.1834321698530129,0.0,0.21881936432279542,0.17875643797501387,0.047360611459273574,1228.1376854544399,20415.659899128008
5.403028822667317,932.5453284969805,931.6074654641251,0.18353672222882167,0.0,0.21885049549849786,0.17872447590766594,0.04735953704065959,1228.1143563004239,20424.544465908
5.412799218368344,932.6378304384829,931.7019532216483,0.18364107030963475,0.0,0.21888155552520935,0.17869258324296577,0.047358465431019535,1228.0910698103048,20433.42256706669
5.422569614069371,932.7301932169731,931.7962407885047,0.18374522608869637,0.0,0.21891254813006375,0.1786607562535936,0.04735739662485053,1228.067823390515,20442.294210356475
5.432340009770396,932.8224225611185,931.8903349476337,0.18384920128067087,0.0,0.21894347695305164,0.17862899129930293,0.04735633061715284,1228.0446145076664,20451.159403599384
5.442110405471421,932.9145240937997,931.984242361577,0.18395300733151823,0.0,0.21897434555009476,0.17859728482384712,0.04735526740342243,1228.021440686415,20460.018154685218
5.451880801172448,933.0065033343384,932.0779695745584,0.18405665542792116,0.0,0.2190051573959813,0.17856563335204498,0.04735420697964372,1227.9982995074242,20468.870471569666
5.461651196873474,933.098365700691,932.1715230145542,0.18416015650637574,0.0,0.21903591588719648,0.17853403348695096,0.04735314934228246,1227.9751886053998,20477.716362272524
5.471421592574499,933.1901165115908,932.2649089953406,0.18426352126184112,0.0,0.21906662434461616,0.1785024819071626,0.04735209448827866,1227.9521056672197,20486.555834875915
5.4811919882755245,933.2817609886539,932.3581337185302,0.18436676015607448,0.0,0.2190972860161027,0.17847097536422551,0.04735104241503972,1227.9290484301325,20495.388897522567
5.490962383976551,933.3733042584438,932.4512032755861,0.18446988342561313,0.0,0.21912790407899113,0.17843951068014802,0.047349993120433725,1227.9060146800325,20504.215558414126
5.500732779677577,933.4647513544917,932.5441236498176,0.1845729010894162,0.0,0.2191584816424694,0.17840808474502168,0.04734894660278276,1227.883002249808,20513.035825809508
5.510503175378602,933.5561072192795,932.6369007183557,0.18467582295619964,0.0,0.2191890217498635,0.17837669451473728,0.047347902860856404,1227.8600090177556,20521.849708023285
5.520273571079628,933.6473767061839,932.7295402541079,0.1847786586314862,0.0,0.2192195273808338,0.17834533700878902,0.0473468618938654,1227.8370329060567,20530.65721342412
5.530043966780655,933.7385645813785,932.8220479276894,0.18488141752434392,0.0,0.21925000145347473,0.17831400930817584,0.04734582370145534,1227.8140718793209,20539.458350433215
5.539814362481681,933.8296755257044,932.9144293093358,0.18498410885390332,0.0,0.21928044682634545,0.17828270855337144,0.047344788283700555,1227.7911239431774,20548.253127522825
5.549584758182706,933.9207141364941,933.006689870787,0.18508674165554326,0.0,0.21931086630039773,0.1782514319423972,0.04734375564109809,1227.768187142938,20557.041553214774
5.559355153883732,934.011684929369,933.098834987154,0.1851893247869108,0.0,0.21934126262085202,0.17822017672894697,0.04734272577456182,1227.7452595622963,20565.823636079036
5.569125549584758,934.1025923399931,933.190869938757,0.1852918669336511,0.0,0.21937163847898344,0.1781889402206017,0.04734169868541663,1227.7223393220893,20574.599384732326
5.578895945285785,934.1934407257924,933.2827999129404,0.18539437661491398,0.0,0.21940199651383846,0.17815771977711362,0.047340674375392786,1227.6994245791072,20583.368807836738
5.58866634098681,934.2842343676427,933.3746300058648,0.18549686218867847,0.0,0.21943233931389458,0.1781265128087472,0.04733965284662035,1227.6765135249425,20592.131914098394
5.598436736687836,934.3749774715194,933.4663652242714,0.18559933185683536,0.0,0.21946266941864517,0.17809531677469506,0.04733863410162377,1227.6536043848917,20600.888712266158
5.608207132388862,934.4656741701168,933.5580104872242,0.1857017936701102,0.0,0.21949298932013445,0.17806412918154374,0.04733761814331651,1227.630695416891,20609.63921113035
5.617977528089888,934.5563285244309,933.6495706278249,0.18580425553276028,0.0,0.21952330146442223,0.17803294758180968,0.047336604974995845,1227.6077849105027,20618.3834195215
5.627747923790913,934.6469445253118,933.7410503949018,0.1859067252071165,0.0,0.21955360825300027,0.17800176957252328,0.04733559460033775,1227.5848711859312,20627.121346309134
5.637518319491939,934.737526094984,933.8324544546755,0.18600921031795012,0.0,0.2195839120441544,0.17797059279386787,0.04733458702339188,1227.5619525930817,20635.85300040059
5.647288715192965,934.8280770885339,933.923787392397,0.18611171835666607,0.0,0.21961421515427246,0.17793941492787207,0.047333582248576665,1227.5390275106527,20644.57839073985
5.657059110893991,934.9186012953691,934.0150537139616,0.18621425668535796,0.0,0.2196445198591092,0.1779082336971456,0.0473325802806745,1227.5160943452595,20653.297526306418
5.6668295065950165,935.0091024406423,934.1062578474938,0.18631683254067205,0.0,0.219674828394992,0.1778770468636744,0.04733158112482703,1227.4931515306005,20662.010416114197
5.676599902296042,935.0995841866519,934.197404144912,0.18641945303758178,0.0,0.21970514295999835,0.17784585222764354,0.047330584786530586,1227.4701975266398,20670.717069210426
5.686370297997069,935.1900501342085,934.2884968834627,0.18652212517298222,0.0,0.21973546571507754,0.1778146476263161,0.04732959127163164,1227.4472308188324,20679.41749467462
5.696140693698095,935.2805038239757,934.3795402672324,0.18662485582917443,0.0,0.21976579878513816,0.17778343093294663,0.04732860058632238,1227.424249917369,20688.11170161753
5.7059110893991205,935.3709487377793,934.4705384286315,0.18672765177720432,0.0,0.21979614426008995,0.17775220005573936,0.04732761273713645,1227.401253356457,20696.79969918015
5.715681485100146,935.4613882998943,934.5614954298557,0.18683051968010958,0.0,0.21982650419585736,0.1777209529368356,0.04732662773094466,1227.3782396936167,20705.481496532724
5.725451880801172,935.5518258782979,934.6524152643193,0.1869334660960075,0.0,0.2198568806153435,0.17768968755135023,0.047325645574950906,1227.3552075090154,20714.15710287381
5.735222276502199,935.6422647859044,934.7433018580675,0.1870364974811317,0.0,0.21988727550937803,0.17765840190642432,0.04732466627668807,1227.332155404811,20722.826527429315
5.7449926722032245,935.7327082817633,934.8341590711583,0.18713962019268351,0.0,0.21991769083760743,0.1776270940403354,0.047323689844014125,1227.3090820045347,20731.489779451593
5.75476306790425,935.823159572243,934.9249906990259,0.18724284049166084,0.0,0.21994812852937834,0.17759576202161464,0.0473227162851082,1227.2859859524822,20740.146868218555
5.764533463605276,935.9136218121802,935.0158004738146,0.187346164545523,0.0,0.21997859048456972,0.1775644039482154,0.047321745608466866,1227.2628659131353,20748.797803032805
5.774303859306302,936.004098106011,935.106592065692,0.1874495984308065,0.0,0.22000907857440963,0.1775330179466966,0.04732077782290037,1227.2397205705984,20757.442593220774
5.784074255007328,936.0945915088747,935.1973690841367,0.1875531481356296,0.0,0.22003959464225756,0.17750160217144115,0.04731981293752903,1227.2165486280562,20766.0812481319
5.793844650708353,936.1851050276946,935.2881350792023,0.18765681956211214,0.0,0.2200701405043602,0.17747015480390055,0.04731885096177973,1227.1933488072525,20774.713777137826
5.803615046409379,936.2756416222369,935.3788935427597,0.18776061852872006,0.0,0.2201007179505838,0.177438674051863,0.04731789190538242,1227.1701198479811,20783.34018963158
5.813385442110405,936.3662042061444,935.4696479097131,0.18786455077251846,0.0,0.2201313287451182,0.17740715814875005,0.04731693577836676,1227.1468605076018,20791.960495026844
5.823155837811431,936.4567956479491,935.5604015591955,0.18796862195134753,0.0,0.22016197462715634,0.17737560535293706,0.047315982591058764,1227.123569560568,20800.574702757163
5.832926233512456,936.5474187720644,935.651157815741,0.18807283764594185,0.0,0.22019265731155674,0.1773440139470917,0.04731503235407765,1227.1002457979705,20809.182822275245
5.842696629213483,936.6380763597549,935.7419199504359,0.1881772033619684,0.0,0.22022337848948012,0.1773123822375374,0.04731408507833258,1227.0768880270957,20817.78486305221
5.852467024914509,936.7287711500816,935.8326911820434,0.18828172453197176,0.0,0.22025413982899744,0.17728070855364583,0.04731314077501966,1227.0534950710064,20826.38083457691
5.862237420615535,936.819505840834,935.923474678113,0.18838640651730862,0.0,0.22028494297569434,0.17724899124723295,0.04731219945561886,1227.0300657681234,20834.970746355248
5.87200781631656,936.9102830894342,936.0142735560624,0.18849125460995486,0.0,0.22031578955323614,0.17721722869199438,0.047311261131891096,1227.0065989718355,20843.5546079095
5.881778212017586,937.0011055138302,936.1050908842443,0.1885962740343289,0.0,0.22034668116393746,0.17718541928293605,0.04731032581587533,1226.9830935501045,20852.132428777666
5.891548607718613,937.0919756933612,936.1959296829866,0.1887014699489852,0.0,0.22037761938929196,0.17715356143584504,0.04730939351988578,1226.959548385101,20860.70421851284
5.901319003419639,937.1828961696083,936.2867929256153,0.18880684744828438,0.0,0.2204086057904942,0.17712165358676796,0.04730846425650913,1226.935962372842,20869.269986682593
5.911089399120664,937.2738694472255,936.3776835394558,0.18891241156400268,0.0,0.2204396419089429,0.17708969419150805,0.047307538038601875,1226.9123344228437,20877.829742868358
5.92085979482169,937.3648979947559,936.4686044068169,0.1890181672669145,0.0,0.2204707292667358,0.17705768172513087,0.047306614879287695,1226.8886634577805,20886.383496664854
5.930630190522717,937.4559842454219,936.5595583659498,0.189124119468262,0.0,0.22050186936712912,0.1770256146815049,0.047305694791954865,1226.864948413166,20894.93125767949
5.940400586223742,937.5471305979108,936.6505482119952,0.18923027302127496,0.0,0.2205330636950128,0.1769934915728269,0.04730477779025378,1226.841188237026,20903.473035531828
5.950170981924767,937.6383394171303,936.7415766979045,0.18933663272254198,0.0,0.2205643137173394,0.17696131092919315,0.04730386388809448,1226.8173818896012,20912.00883985302
5.9599413776257935,937.7296130349565,936.8326465353468,0.18944320331341136,0.0,0.22059562088356208,0.1769290712981619,0.047302953099644295,1226.7935283430454,20920.53868028528
5.96971177332682,937.8209537509589,936.9237603955943,0.18954998948129637,0.0,0.22062698662604305,0.17689677124434527,0.04730204543932549,1226.769626581143,20929.062566481352
5.979482169027845,937.912363833119,937.0149209103946,0.18965699586101054,0.0,0.22065841236047098,0.17686440934899206,0.04730114092181298,1226.7456755990206,20937.58050810402
5.98925256472887,938.0038455185207,937.1061306728191,0.18976422703597218,0.0,0.220689899486238,0.1768319842096112,0.047300239562032144,1226.7216744028872,20946.09251482559
5.9990229604298975,938.0954010140368,937.1973922380982,0.1898716875394477,0.0,0.2207214493868284,0.176799494439583,0.04729934137515661,1226.6976220097652,20954.59859632743
6.008793356130924,938.1870324969925,937.288708124438,0.18997938185571134,0.0,0.2207530634301816,0.17676693866779697,0.04729844637660617,1226.6735174472396,20963.098762299473
6.018563751831949,938.2787421158207,937.3800808138208,0.19008731442120474,0.0,0.22078474296905493,0.17673431553828897,0.0472975545820447,1226.6493597532083,20971.593022439774
6.028334147532974,938.3705319906974,937.4715127527877,0.1901954896256287,0.0,0.22081648934136497,0.1767016237099001,0.047296666007378134,1226.6251479756459,20980.081386454065
6.038104543234001,938.462404214168,937.5630063532074,0.19030391181303544,0.0,0.2208483038705296,0.1766688618559353,0.047295780668752486,1226.6008811723668,20988.563864055297
6.047874938935028,938.5543608517559,937.6545639930262,0.19041258528285843,0.0,0.22088018786579,0.17663602866384115,0.04729489858255197,1226.576558410805,20997.040464963226
6.057645334636053,938.6464039425598,937.7461880170044,0.19052151429093023,0.0,0.2209121426225292,0.17660312283488788,0.04729401976539707,1226.552178767792,21005.511198903994
6.067415730337078,938.7385354998388,937.8378807374372,0.19063070305047505,0.0,0.22094416942258274,0.17657014308385888,0.04729314423414274,1226.5277413293427,21013.97607560973
6.077186126038105,938.8307575115826,937.9296444348599,0.19074015573305966,0.0,0.22097626953453603,0.17653708813875352,0.047292272005876615,1226.5032451904515,21022.435104818145
6.086956521739131,938.9230719410713,938.021481358739,0.1908498764695303,0.0,0.22100844421401777,0.176503956740494,0.047291403097917246,1226.4786894548884,21030.888296272147
6.096726917440156,939.0154807274232,938.1133937281494,0.19095986935092502,0.0,0.22104069470398524,0.17647074764264034,0.04729053752781243,1226.4540732350026,21039.33565971946
6.1064973131411815,939.107985786124,938.2053837324335,0.1910701384293158,0.0,0.2210730222349881,0.17643745961112675,0.04728967531333753,1226.42939565154,21047.777204912276
6.116267708842208,939.200589009558,938.297453531854,0.19118068771872126,0.0,0.22110542802545366,0.1764040914239765,0.047288816472493854,1226.4046558334471,21056.212941606875
6.126038104543234,939.2932922675119,938.3896052582242,0.1912915211958802,0.0,0.22113791328192942,0.17637064187105983,0.04728796102350708,1226.3798529177027,21064.642879563286
6.135808500244259,939.3860974076813,938.4818410155332,0.19140264280111138,0.0,0.2211704791993517,0.17633710975382522,0.047287108984825736,1226.3549860491328,21073.06702854495
6.145578895945285,939.4790062561575,938.5741628805515,0.1915140564390723,0.0,0.22120312696128344,0.17630349388506197,0.04728626037511965,1226.3300543802466,21081.485398318375
6.155349291646312,939.5720206179084,938.666572903429,0.191625765979546,0.0,0.22123585774016033,0.17626979308865431,0.04728541521327853,1226.3050570710668,21089.89799865284
6.165119687347338,939.6651422772447,938.7590731082751,0.19173777525816826,0.0,0.22126867269751832,0.1762360061993539,0.04728457351841052,1226.279993288972,21098.304839320044
6.174890083048363,939.7583729982824,938.8516654937325,0.19185008807718335,0.0,0.22130157298423025,0.17620213206254348,0.04728373530984079,1226.2548622085335,21106.705930093827
6.184660478749389,939.8517145253871,938.9443520335333,0.19196270820612524,0.0,0.22133455974071914,0.1761681695340238,0.047282900607110205,1226.2296630113688,21115.101280749863
6.194430874450415,939.9451685836158,939.0371346770473,0.19207563938252692,0.0,0.22136763409717997,0.176134117479792,0.047282069429973955,1226.2043948859873,21123.490901065365
6.204201270151442,940.0387368791462,939.1300153498172,0.19218888531259307,0.0,0.22140079717379035,0.1760999747758309,0.04728124179840033,1226.179057027646,21131.874800818798
6.213971665852467,940.1324210996978,939.222995954083,0.19230244967186413,0.0,0.22143405008091832,0.1760657403079017,0.047280417732569385,1226.1536486382054,21140.252989789613
6.223742061553493,940.2262229149411,939.3160783692941,0.19241633610584336,0.0,0.22146739391931858,0.1760314129713477,0.04727959725287177,1226.1281689259945,21148.62547775797
6.233512457254519,940.3201439769022,939.4092644526127,0.19253054823063548,0.0,0.22150082978033242,0.1759969916708945,0.047278780379907494,1226.1026171056724,21156.992274504482
6.243282852955545,940.4141859203569,939.5025560394048,0.19264508963356122,0.0,0.22153435874607993,0.175962475320458,0.04727796713448478,1226.0769923980956,21165.353389809945
6.25305324865657,940.508350363214,939.5959549437212,0.19275996387373812,0.0,0.22156798188964186,0.17592786284296275,0.04727715753761892,1226.051294030193,21173.708833455104
6.262823644357596,940.6026389068963,939.6894629587699,0.19287517448268718,0.0,0.22160170027524947,0.1758931531701521,0.047276351610531155,1226.0255212348343,21182.058615220405
6.272594040058622,940.6970531367077,939.7830818573766,0.19299072496488678,0.0,0.22163551495845774,0.17585834524241523,0.047275549374647605,1225.9996732507104,21190.402744885756
6.282364435759648,940.7915946221975,939.8768133924373,0.19310661879835006,0.0,0.2216694269863261,0.1758234380086064,0.047274750851598206,1225.973749322209,21198.741232230303
6.2921348314606735,940.8862649175082,939.9706592973571,0.19322285943512565,0.0,0.2217034373975753,0.1757884304258884,0.047273956063215695,1225.9477486993062,21207.074087032197
6.301905227161699,940.9810655617307,940.0646212864881,0.1933394503018881,0.0,0.2217375472227718,0.1757533214595482,0.0472731650315346,1225.9216706374386,21215.40131906838
6.311675622862726,941.0759980792384,940.1587010555497,0.1934563948004237,0.0,0.22177175748448005,0.17571811008284471,0.04727237777879025,1225.8955143973992,21223.722938114384
6.321446018563752,941.1710639800198,940.2529002820442,0.19357369630814367,0.0,0.2218060691974229,0.17568279527684855,0.04727159432741786,1225.869279245226,21232.038953944102
6.3312164142647775,941.266264760006,940.3472206256637,0.1936913581785974,0.0,0.2218404833686423,0.1756473760302815,0.04727081470005155,1225.8429644520904,21240.349376329606
6.340986809965803,941.3616019013882,940.4416637286878,0.19380938374195014,0.0,0.2218750009976485,0.17561185133936727,0.047270038919523506,1225.8165692941957,21248.654215040944
6.350757205666829,941.4570768729299,940.5362312163729,0.19392777630546887,0.0,0.2219096230765723,0.17557622020767946,0.047269267008863046,1225.7900930526705,21256.953479845946
6.360527601367856,941.5526911302713,940.6309246973332,0.19404653915397801,0.0,0.2219443505903075,0.17554048164599925,0.04726849899129578,1225.7635350134713,21265.24718051005
6.370297997068882,941.6484461162313,940.7257457639147,0.1941656755503375,0.0,0.22197918451666035,0.1755046346721659,0.047267734890242795,1225.7368944672783,21273.5353267961
6.380068392769907,941.7443432611007,940.8206959925624,0.1942851887358972,0.0,0.2220141258264917,0.17546867831093474,0.04726697472931979,1225.710170709398,21281.817928464203
6.389838788470933,941.8403839829264,940.9157769441757,0.19440508193091144,0.0,0.22204917548384667,0.1754326115938476,0.04726621853233633,1225.6833630396734,21290.09499527153
6.399609184171959,941.9365696877958,941.0109901644614,0.19452535833499676,0.0,0.22208433444609785,0.17539643355908974,0.04726546632329506,1225.656470762385,21298.366536972168
6.409379579872985,942.0329017701118,941.1063371842765,0.19464602112755008,0.0,0.2221196036640759,0.1753601432513592,0.04726471812639095,1225.62949318616,21306.63256331694
6.41914997557401,942.1293816128635,941.2018195199655,0.19476707346816993,0.0,0.2221549840822014,0.17532373972173523,0.047263973966010536,1225.6024296238827,21314.893084053278
6.428920371275036,942.2260105878914,941.29743867369,0.19488851849706756,0.0,0.22219047663861327,0.17528722202754968,0.04726323386673124,1225.575279392604,21323.14810892504
6.438690766976063,942.3227900561454,941.3931961337505,0.19501035933546004,0.0,0.2222260822652917,0.17525058923226428,0.04726249785332066,1225.548041813457,21331.397647672387
6.448461162677088,942.4197213679425,941.4890933749055,0.19513259908598612,0.0,0.22226180188818812,0.17521384040534077,0.047261765950735876,1225.5207162115678,21339.641710031614
6.458231558378113,942.516805863211,941.5851318586778,0.19525524083306003,0.0,0.22229763642733583,0.17517697462213025,0.04726103818412282,1225.4933019159785,21347.880305735038
6.46800195407914,942.614044871742,941.6813130336626,0.1953782876433015,0.0,0.22233358679698437,0.1751399909637389,0.047260314578815604,1225.4657982595538,21356.113444510847
6.477772349780167,942.7114397134229,941.7776383358214,0.1955017425658674,0.0,0.22236965390570312,0.17510288851692446,0.04725959516033589,1225.4382045789102,21364.341136082963
6.487542745481192,942.8089916984782,941.8741091887767,0.19562560863286044,0.0,0.222405838656509,0.17506566637396845,0.04725887995439231,1225.4105202143276,21372.563390170937
6.497313141182217,942.9067021276961,941.9707270040961,0.1957498888596639,0.0,0.2224421419469711,0.1750283236325718,0.047258168986879824,1225.3827445096758,21380.7802164898
6.507083536883243,943.0045722926545,942.0674931815721,0.1958745862453,0.0,0.22247856466932264,0.17499085939574274,0.047257462283879184,1225.354876812339,21388.991624749953
6.516853932584271,943.1026034759476,942.1644091094988,0.19599970377281306,0.0,0.22251510771058058,0.17495327277167738,0.04725675987165632,1225.3269164731307,21397.19762465707
6.526624328285296,943.2007969513999,942.2614761649402,0.19612524440959214,0.0,0.22255177195264653,0.17491556287365875,0.04725606177666183,1225.2988628462263,21405.39822591194
6.536394723986321,943.2991539842782,942.3586957139922,0.1962512111077015,0.0,0.22258855827240975,0.17487772881995378,0.047255368025530424,1225.2707152890898,21413.593438210406
6.546165119687347,943.3976758315048,942.4560691120438,0.19637760680424127,0.0,0.22262546754186,0.17483976973370063,0.04725467864508041,1225.2424731623967,21421.78327124323
6.555935515388374,943.4963637418625,942.5535977040302,0.1965044344216745,0.0,0.22266250062818954,0.1748016847428067,0.047253993662313136,1225.2141358299632,21429.967734695998
6.565705911089399,943.5952189561958,942.6512828246813,0.19663169686815138,0.0,0.22269965839389436,0.17476347297984723,0.04725331310441258,1225.185702658676,21438.14683824902
6.575476306790424,943.6942427076089,942.7491257987656,0.19675939703782575,0.0,0.22273694169687294,0.17472513358196684,0.04725263699874479,1225.1571730184244,21446.320591577238
6.5852467024914505,943.7934362216606,942.8471279413295,0.1968875378111832,0.0,0.2227743513905288,0.1746866656907768,0.04725196537285741,1225.1285462820283,21454.489004350133
6.595017098192477,943.8928007165546,942.9452905579317,0.19701612205534041,0.0,0.22281188832386387,0.17464806845226177,0.047251298254479296,1225.0998218251746,21462.65208623162
6.604787493893502,943.9923374033294,943.0436149448744,0.1971451526243789,0.0,0.2228495533415825,0.1746093410166758,0.04725063567151996,1225.0709990263442,21470.80984687999
6.614557889594527,944.0920474860392,943.1421023894279,0.1972746323596205,0.0,0.22288734728417764,0.17457048253845614,0.04724997765206922,1225.0420772667533,21478.962295947793
