z,t,T,fs,fl,x,y,w,rhob,p
0.0,505.28,595.14,0.0,0.0,0.24338400000000002,0.17434,0.04055,1267.6,1.4771
0.012023,505.28,595.14,5.188132514557259e-06,0.0,0.24338400000000002,0.17434,0.04055,1267.6,1.4771
0.014119,505.28,595.14,6.09259277826116e-06,0.0,0.24338400000000002,0.17434,0.04055,1267.6,1.4771
0.033191,505.28,601.1019041853739,1.4322490750284453e-05,0.0,0.24338400000000002,0.17434,0.04055,1267.6,1.4771
0.073588,544.5806929181224,613.73,3.175449517435245e-05,0.0,0.24338400000000002,0.17434,0.04055,1267.6,1.4771
0.076414,547.33,614.2415422184988,3.297396306806773e-05,0.0,0.24338400000000002,0.17434,0.04055,1267.6,1.4771
0.088468,550.949352896915,616.423470704622,3.817547261896794e-05,0.0,0.24338400000000002,0.17434,0.04055,1267.6,1.4771
0.09307,552.3311566161453,617.2564916846402,4.016131523994378e-05,0.0,0.24338400000000002,0.17433134903718947,0.04055,1267.6,1.4771
0.098347,553.9156368913254,618.2116963155737,4.2438432039354795e-05,0.0,0.24338400000000002,0.174321429191307,0.04055042849312844,1267.6,1.4771
0.13659,565.3985398975241,625.134169444395,5.8940948196238535e-05,0.0,0.2435104100421544,0.17424953897601736,0.04055353383000752,1267.6,1.4771
0.18579,580.171408864524,634.04,8.017159942440265e-05,0.0,0.24367303781910693,0.17415705149877317,0.040557528876799094,1267.6,1.4845347675625793
0.18805,580.85,634.3104363163758,8.114682852553377e-05,0.0,0.24368050811943034,0.1741528030902656,0.040557712389111066,1267.6,1.4848762833083402
0.27252,595.74,644.4182927961381,0.00011759709497356267,0.0,0.24395971885762507,0.17399401412272866,0.040564571364771325,1267.6,1.497640812089053
0.29351,599.0920648024855,646.93,0.00012665464312964326,0.0,0.24402910009823958,0.17395455655875802,0.04056627575566878,1267.6,1.5008126773560966
0.38517,613.73,657.5160315724731,0.00016620751897463356,0.0,0.24433207696887918,0.17378225163672134,0.040573718560321555,1267.6,1.5146637097704465
0.43984,622.6283500557413,663.83,0.0001897985698413761,0.0,0.2445127855169685,0.17367948150702744,0.04057815777186821,1267.6,1.5229250663282963
0.48335,629.7102452619844,668.1992265030385,0.000208573887624657,0.0,0.24465660532540762,0.17359769024412305,0.04058169078987434,1267.6,1.5295
0.48384,629.79,668.2484317658859,0.00020878533110233586,0.0,0.2446582249922919,0.17359676912900418,0.04058173057794198,1267.6,1.5295697343453512
0.56822,646.81,676.7217788660098,0.00024519676099324004,0.0,0.24493713824065072,0.1734381493458768,0.04058858224558982,1267.6,1.5415782732447818
0.60933,651.976976551887,680.85,0.0002629364372531959,0.0,0.24507302498679948,0.17336086966722825,0.04059192038326465,1267.6,1.547428842504744
0.73626,667.9303780048432,697.87,0.000317708928318051,0.0,0.24549258481868128,0.17312226325489885,0.0406022271167861,1267.6,1.5654928842504745
0.73753,668.09,697.9975794524859,0.00031825695529081054,0.0,0.2454967827308099,0.17311987587489683,0.04060233024096141,1267.6,1.565673624288425
0.79598,673.9575320588467,703.8692479546885,0.00034347914155679005,0.0,0.24568998585200658,0.17301,0.04060707638902986,1267.6,1.573991935483871
0.85225,679.6062237432145,709.5219218061674,0.00036776062010574926,0.0,0.24587598310828948,0.17277896715367388,0.040611645520797386,1267.6,1.582
0.86338,680.723514278971,710.64,0.00037256340767016934,0.0,0.24591277268466105,0.17273326970246347,0.04061254927833377,1267.6,1.583550065116279
0.86464,680.85,710.7875624517126,0.000373107119469915,0.0,0.2459169375423635,0.17272809640610004,0.040612651590507705,1267.6,1.5837255441860465
0.89945,684.7860622342938,714.8642679629153,0.0003881282367311425,0.0,0.24603200000000003,0.17258517382958302,0.04061547816731288,1267.6,1.5885735016611295
1.0187,698.2699870099196,728.83,0.0004395866749213573,0.0,0.2466336426301638,0.17209555828090006,0.040625161283774185,1267.6,1.605181342192691
1.034,700.0,729.9020822281168,0.0004461888896325547,0.0,0.2467108345147886,0.17203273968220112,0.0406264036458862,1267.6,1.6073121594684385
1.07829,704.4472908554573,733.0055150309461,0.0004653007909109163,0.0,0.24693428736250309,0.17185089420923536,0.04063,1267.6,1.6134803880398672
1.0892,705.542796460177,733.7699867374006,0.0004700086446690315,0.0,0.2469893307259839,0.17180610003199318,0.04063190060856638,1267.6,1.6149998139534885
1.2035,717.02,741.7790716180372,0.0005193310722173884,0.0,0.247565999511122,0.17133680814759517,0.0406518125754901,1267.3607314370151,1.6309182724252493
1.2285,718.8525054330953,743.5308399646331,0.0005301190047520246,0.0,0.24769213004155466,0.17123416337847924,0.04065616777385487,1267.3083979805442,1.6344
1.2449,720.0546289972058,744.68,0.000537195888494746,0.0,0.24777487166951848,0.17116682840993921,0.04065902478398216,1267.2740672330992,1.6367817427385893
1.3586,728.3888637069233,753.2359752504419,0.0005862594056622717,0.0,0.2483485133219262,0.1707,0.04067883222614513,1267.0360546730699,1.6532941908713694
1.4146,732.4936758770568,757.45,0.0006104243745398568,0.0,0.24863104571009534,0.17044051191526918,0.040688587870482205,1266.918827730575,1.661426970954357
1.4941,738.3210431542999,761.1291350792557,0.00064473,0.0,0.2490321407968712,0.17007213150926742,0.04070243740128217,1266.7524073389977,1.6729726141078838
1.5131,739.7137472834523,762.0084252239835,0.0009319020194239773,0.0,0.24912800000000002,0.1699840909090909,0.04070574735203939,1266.7126339120798,1.675731950207469
1.5256,740.63,762.5869055823571,0.0011208309795713344,0.0,0.2491962382133995,0.16992616946160635,0.040707924951221774,1266.6864671838443,1.6775473029045644
1.59,745.0064788732394,765.5672363886974,0.002094192982250504,0.0,0.24954780148883376,0.16962775816416592,0.04071914394220942,1266.5516561999755,1.6869
1.7048,752.808028169014,770.88,0.003829316552243807,0.0,0.2501745012406948,0.16909580759046777,0.040739143013100436,1266.311340967861,1.7014583736689255
1.8118,760.0795070422536,775.0297996995494,0.005446548451105161,0.0,0.25075862034739455,0.1686,0.040757783262101645,1266.0873537741659,1.7150275895450147
1.838,761.86,776.0459188783175,0.005842543551574014,0.0,0.2509016476426799,0.16844516057091882,0.04076234750998792,1266.0325083117843,1.7183501452081318
1.9013,765.4120634121791,778.5008938407611,0.006799279805760216,0.0,0.251247205955335,0.1680710637823372,0.04077337487224751,1265.9,1.7263775411423041
1.93933,767.5461071967791,779.9758179769655,0.0073740772741125275,0.0,0.2514548138957816,0.16784631021409455,0.04078,1265.8434544853792,1.7312003194578898
2.0032,771.1301560140917,782.4528993490235,0.00833942868888145,0.0,0.25180348387096774,0.16746884478144514,0.04078,1265.748488352883,1.7393
2.0773,775.2882586814293,785.3267325988984,0.009459399564634968,0.0,0.252208,0.16703092105263156,0.04078,1265.6383115810343,1.747805137735024
2.0913,776.0738651233014,785.8696970455684,0.009671,0.0,0.2523328240262787,0.166948182426405,0.04078,1265.6174954567985,1.7494120463489289
2.1042,776.7977453447409,786.37,0.009943342273506942,0.0,0.25244784045049273,0.16687194469223907,0.04078,1265.598314885181,1.7508926978574553
2.2354,784.16,791.7922437841115,0.012713210977701542,0.0,0.25361761989676207,0.16609656556645852,0.04078,1265.40323806377,1.7659517271534761
2.2602,785.1081551263934,792.8171801091571,0.013236783720567602,0.0,0.253838736743313,0.16595,0.04078,1265.3663637865523,1.7687982509838216
2.434,791.7528874234573,800.0,0.01690601528145954,0.0,0.25538833786954485,0.16426239894551845,0.04078,1265.1079464728234,1.7887468736335812
2.4606,792.7698602606374,800.5871867219917,0.01746758927179167,0.0,0.25562550351947444,0.16400411247803162,0.04078,1265.0683958367752,1.7918
2.5035,794.410015701052,801.5341908713693,0.018373285669733348,0.0,0.256008,0.16358755272407732,0.04078,1265.0046092846521,1.796181233933162
2.5066,794.5285350918512,801.6026224066391,0.018438732262591614,0.0,0.25603705031446544,0.1635574516695958,0.04078,1265.0,1.796497826594999
2.62465,799.0418299576071,804.2085394190872,0.020930980742242318,0.0,0.25714330503144656,0.16241118409490335,0.04078,1264.884082875098,1.8085538794110774
2.7154,802.5113895430993,806.2118174273859,0.02284687696865741,0.0,0.2579937295597484,0.16153,0.04076508061966487,1264.7949725058916,1.8178218742696892
2.7326,803.1689810017272,806.5915020746888,0.02321,0.0,0.25815491194968554,0.16137739039665971,0.04076225292443882,1264.7780832678711,1.8195784529095582
2.8723,808.51,809.675336099585,0.027012207296849087,0.0,0.2594640503144654,0.16013788100208767,0.04073928612077142,1264.6409073055775,1.8338455480252394
2.8885,808.9405629477993,810.0329460580913,0.02745312181516659,0.0,0.2596158616352201,0.15999414405010437,0.040736622826430605,1264.625,1.8355
2.916,809.6714568406687,810.64,0.028201587818483337,0.0,0.2598735660377358,0.15975014613778704,0.040732101802086626,1264.5979968578163,1.8383318347248983
3.0158,812.3239372227908,812.8566733067729,0.030917838986883762,0.0,0.26080879874213836,0.15886465553235907,0.040715694593740116,1264.5,1.8486088203810747
3.0986,814.524592289321,814.6957569721116,0.03317140208050655,0.0,0.26158472327044024,0.15813,0.040702082200442614,1264.1603773584907,1.857135217298223
3.1395,815.6116308427158,815.6041932270916,0.03428457515453037,0.0,0.261968,0.15771308034720677,0.04069535820423648,1263.9926168990976,1.8613469278527082
3.3556,821.3551279426817,820.4040239043825,0.04016615709332127,0.0,0.26477685232317255,0.15551023592254618,0.04065983117293708,1263.1062346185397,1.8836
3.3815,822.0434970999659,820.9792928286852,0.04087107598371777,0.0,0.2651134986682451,0.15524622078789227,0.04065557319000948,1263.0,1.8860581491712707
3.3959,822.426219720232,821.2991334661355,0.041263,0.0,0.26530066883693404,0.15509943245047852,0.04065320581726209,1262.913417721519,1.8874248421468034
3.4154,822.9444899351757,821.7322509960159,0.04186628626268165,0.0,0.265554128440367,0.1549006565768974,0.04065,1262.796170886076,1.8892755722178374
3.418,823.0135926305015,821.79,0.04194672443103921,0.0,0.26558792305415807,0.15487415312708658,0.04065,1262.7805379746835,1.8895223362273086
3.4585,824.09,822.4212665958577,0.04319970359199341,0.0,0.2661143391535958,0.15446131092811038,0.04065,1262.5370253164558,1.8933661602209944
3.4774,824.4088737864078,822.7158576739246,0.04378442720043871,0.0,0.26636000000000004,0.15426865123525482,0.04065,1262.4233860759493,1.8951599447513812
3.5479,825.5983236245955,823.8147291556028,0.04596553907321085,0.0,0.2672763819095478,0.15355,0.04065,1261.999493670886,1.901851045777427
3.7946,829.7605544768069,827.66,0.05359788374006032,0.0,0.27048306867671695,0.1513585664692669,0.04065,1260.516170886076,1.9252651539068666
3.8624,830.9044509169363,828.3377725595437,0.055695463668768846,0.0,0.27136435510887774,0.15075629977537267,0.04065,1260.108512658228,1.9317
3.922,831.91,828.9335726266353,0.057539353989580475,0.0,0.27213905527638194,0.15022687359607922,0.04065,1259.750158227848,1.9374700685760387
3.955,832.2072410062212,829.2634619255283,0.05856029997258019,0.0,0.27256800000000003,0.14993373493975903,0.04065,1259.5517405063292,1.9406649052037113
4.0135,832.7341682445226,829.8482656826568,0.06037015876062515,0.0,0.27283286043533933,0.1494140800490096,0.04065,1259.2,1.946328479225494
4.0376,832.9512442520963,830.0891848373029,0.061115758705785575,0.0,0.27294197387964153,0.1492,0.04065,1259.0741364985163,1.9486616780960064
4.0927,833.4475466594536,830.64,0.0628204291198245,0.0,0.2731914407170295,0.14886703883495145,0.04065,1258.7863738872404,1.953996087131908
4.1253,833.7411847443873,830.9298535564853,0.063829,0.0,0.27333903815621,0.14867004184800803,0.04065,1258.616118694362,1.9571521984671238
4.18858,834.3111668920747,831.4924895397489,0.06598271523378581,0.0,0.2736255401792574,0.14828765015065282,0.04065,1258.2856356083087,1.9632785397337635
4.2917,835.24,832.4093514644351,0.06949237254901958,0.0,0.27409241895006403,0.14766451121526616,0.0406513337127189,1257.7470860534124,1.9732619201290842
4.3582,835.5354630788486,833.0006171548117,0.07175567948717948,0.0,0.2743934996158771,0.14726266153331102,0.04065219379704597,1257.3997863501484,1.9797
4.4751,836.0548560700876,834.04,0.07573433484162895,0.0,0.2749227677336748,0.1465562520924004,0.04065370573475775,1256.7892700296736,1.9896484518013633
4.635,836.7653003754693,835.2371423550087,0.08117648190045246,0.0,0.27564671959026893,0.14559,0.04065577381722238,1255.954183976261,2.003256299902629
4.6557,836.8572715894869,835.3921195079085,0.081881,0.0,0.27574043943661974,0.14546191231343283,0.04065604154271968,1255.8460771513353,2.0050179162609543
4.736,837.2140488110138,835.9933110720561,0.08415744447236179,0.0,0.276104,0.14496503109452735,0.040657080110711605,1255.4267062314539,2.0118516260954236
4.7711,837.37,836.2560984182776,0.08515250301507535,0.0,0.2762278678383128,0.14474783893034826,0.040657534080033114,1255.2433946587537,2.0148387147030187
4.856,837.6472458410351,836.8917293497364,0.08755935402010048,0.0,0.2765274797891037,0.14422249378109453,0.040658632142579997,1254.8,2.022063894839338
4.8717,837.6985150955022,837.0092724077329,0.08800443718592962,0.0,0.27658288506151146,0.14412534514925374,0.040658835200082774,1254.722015256342,2.0234
4.96176,837.9926112138016,837.6835353251317,0.09055757030150753,0.0,0.27690070664323374,0.1435680708955224,0.04066,1254.2746709242504,2.0318071355498724
5.0441,838.2614972273567,838.3,0.09289184723618091,0.0,0.27719128435852375,0.14305856654228857,0.04066,1253.8656732304416,2.0394936061381075
5.0537,838.2928465804067,838.3452289316523,0.093164,0.0,0.27722516274165204,0.14299916355721393,0.04066,1253.8179882916445,2.040389769820972
5.2782,839.0259642637092,839.4029263437292,0.09889116170373162,0.0,0.2780174228471002,0.14161,0.04066,1252.7028561291468,2.0613469309462915
5.305,839.1134812076402,839.5291904445919,0.09957484960422162,0.0,0.278112,0.14150163898916968,0.04066,1252.5697356750045,2.0638487212276218
5.3409,839.2307147258164,839.6983278035832,0.1004906852619676,0.0,0.2782596311915159,0.14135648375451265,0.04066,1252.3914138726273,2.0672
5.4197,839.4880406654344,840.0695819508958,0.10250093177534866,0.0,0.2785836796007486,0.1410378700361011,0.04066,1252.0,2.074298289623717
5.4203,839.49,840.0724087591241,0.10251623822088203,0.0,0.27858614697442297,0.1410354440433213,0.04066,1251.9979619565217,2.074352337514253
5.4962,840.0159716782164,840.43,0.10445250358085187,0.0,0.2788982697442296,0.1407285559566787,0.04066,1251.7401494565217,2.081189395667047
5.5843,840.6264868936427,841.617258805513,0.1067,0.0,0.27926056244541486,0.1403723393501805,0.04066,1251.4408967391305,2.0891254275940705
5.73494,841.6703916842423,843.6473231240428,0.11031872625698325,0.0,0.2798800377292576,0.13976325342960289,0.04066,1250.9292119565218,2.1026950513112883
5.8322,842.3443838505574,844.9580245022971,0.11265513966480448,0.0,0.2802799990018715,0.13937,0.04066296512336897,1250.5988451086957,2.1114562143671605
5.8671,842.5862338053631,845.4283460949464,0.11349351955307262,0.0,0.2804235179039301,0.13920012403683518,0.04066402910450795,1250.4802989130435,2.1146
6.0085,843.5661072612232,847.333889739663,0.11689027932960894,0.0,0.28100499563318776,0.13851185867318175,0.04066833990488192,1250.0,2.1232063258676694
6.0839,844.0886140403736,848.35,0.11870156424581005,0.0,0.28131506225826575,0.138144848712648,0.040670638591927155,1249.7253642384105,2.1277955547956915
6.0841,844.09,848.3542051756008,0.1187063687150838,0.0,0.2813158847161572,0.13814387521142643,0.040670644689240275,1249.7246357615893,2.127807727816721
6.1065,844.4506560406561,848.8251848428836,0.119244469273743,0.0,0.281408,0.13803484307461003,0.040671327588309415,1249.643046357616,2.129171106171995
6.3361,848.1473804573805,853.6527264325324,0.12476,0.0,0.28251713028553593,0.13691726367224208,0.040678327303768136,1248.8067549668874,2.1431457343135576
6.3643,848.6014206514207,854.2456561922367,0.1253702206386186,0.0,0.2826533562178187,0.13678,0.040679187024917685,1248.7040397350993,2.14486213027868
6.452,850.0134534534534,856.0896256931609,0.127267963546663,0.0,0.2830770092058043,0.1363214283327765,0.04068186069671964,1248.3846026490066,2.1502
6.5167,851.0551697851697,857.45,0.1286680087707277,0.0,0.28338955593696363,0.1359831206147678,0.040683833177513104,1248.148940397351,2.154553133410227
6.517,851.06,857.4555976095618,0.12867450047964918,0.0,0.28339100514900917,0.13598155195456066,0.04068384232348278,1248.1478476821192,2.154573317954633
6.6125,853.2947465131724,859.2375033200532,0.1307410278196519,0.0,0.2838523376501794,0.13548219512195123,0.04068675379049632,1247.8,2.1609987312572088
6.71898,855.7864303741421,861.2242815405046,0.13304515170618061,0.0,0.2843667113122172,0.1349254253257601,0.04069,1247.3533394127303,2.1681628988850443
6.7474,856.4514722160726,861.754561752988,0.13366013293134163,0.0,0.284504,0.13477682091546944,0.04068545134443022,1247.2341236549335,2.170075048058439
6.9629,861.4942771751163,865.7755112881806,0.13832334383993422,0.0,0.28570726099706745,0.13365,0.04065096030729833,1246.3301477293453,2.184574279123414
6.9685,861.6253199025901,865.88,0.1384445224064684,0.0,0.28573852903225805,0.13361815721649484,0.04065006402048655,1246.3066569396315,2.184951057285659
6.9687,861.63,865.8875169470249,0.13844885021241607,0.0,0.2857396457478006,0.13361701997422679,0.040650032010243274,1246.305817982856,2.184964513648597
6.9722,861.7035395189004,866.0190635199598,0.13852458681649993,0.0,0.28575918826979474,0.13359711823453607,0.04064947183098591,1246.2911362392852,2.1852
7.0658,863.6701963672067,869.5369947275923,0.14055,0.0,0.286281811143695,0.13306488885309278,0.04063449103713188,1245.8985044683568,2.1929311475409836
7.1608,865.6662690230731,873.1075445643987,0.14248895085921012,0.0,0.28681225102639296,0.1325246987757732,0.040619286171574905,1245.5,2.2007779319041614
7.2813,868.1981296023564,877.6365051468742,0.14494835694905034,0.0,0.28748507214076247,0.13183951030927835,0.0406,1244.966814159292,2.2107309583858763
7.3668,869.9945949926363,880.85,0.14669341272233946,0.0,0.2879624680351906,0.13135333923969073,0.04060810935777206,1244.5884955752213,2.2177930643127364
7.4294,871.3099018163967,883.2352444156685,0.14797107928851372,0.0,0.288312,0.13099738240979383,0.040614046735509265,1244.3115044247788,2.2229636822194196
7.448,871.7007118311242,883.9439592101004,0.14835070545673804,0.0,0.2884602842287695,0.130891618878866,0.04061581087649827,1244.229203539823,2.2245
7.545,873.7388070692194,887.6399449660084,0.1503304763340368,0.0,0.2892335944540728,0.130340056378866,0.040625010966602246,1243.8,2.2288620123203287
7.5798,874.47,888.9659274846229,0.15104074464877904,0.0,0.2895110294627383,0.13014217622422683,0.04062831161748491,1243.6130521289294,2.2304269404517454
7.5837,874.5942160427808,889.114528973778,0.15112034368405186,0.0,0.28954212131715773,0.13012,0.04062868151801487,1243.592101074413,2.230602320328542
7.6757,877.5244406417113,892.62,0.15299806451612905,0.0,0.29027557019064126,0.12946391500321958,0.04063740737667018,1243.0978710704337,2.2347394866529773
7.7292,879.2284299465241,894.6053290183387,0.15409,0.0,0.29070208665511266,0.12908238731487445,0.04064248165317083,1242.8104655789891,2.237145338809035
7.935,885.783214973262,902.2423516720604,0.15988424426766495,0.0,0.29234277989601387,0.12761475370251127,0.04066200101959761,1241.7048945483484,2.2464
8.0064,888.0573240641711,904.8919309600863,0.16189449227889563,0.0,0.292912,0.12710557469414038,0.040668773044684456,1241.3213290887384,2.250903632748961
8.0465,889.3345197860963,906.38,0.16302349711433473,0.0,0.293303136436029,0.12681960721184804,0.0406725763809027,1241.1059092717867,2.253432983914694
8.0473,889.36,906.4134132146526,0.1630460209015754,0.0,0.29331093965669797,0.12681390212491953,0.04067265225793448,1241.101611619578,2.2534834447858305
8.0476,889.3747173689619,906.4259431701472,0.16305446732179066,0.0,0.2933138658644488,0.1268117627173213,0.0406726807118214,1241.1,2.2535023676125068
8.12477,893.1605152449469,909.6490653885655,0.16522716814849475,0.0,0.29406658403822333,0.12626143576947843,0.04068,1240.714585145803,2.2583699493945417
8.2049,897.0915244946899,912.9958165011983,0.16748320698798938,0.0,0.29484817412847286,0.12569,0.04067824612859097,1240.3143869824391,2.263424236399783
8.3386,903.6505652620759,918.58,0.17124749493058802,0.0,0.2961522873827641,0.12454965561635017,0.04067531972640219,1239.6466408893184,2.271857509488523
8.3392,903.68,918.6167724137931,0.17126438777101854,0.0,0.29615813979826583,0.12454453813968458,0.04067530659370725,1239.6436442725953,2.2718953551418757
8.3703,905.015299062399,920.5228091954024,0.17214,0.0,0.29646149000176963,0.12427928226585129,0.04067462588235294,1239.488319639117,2.2738570215073195
8.4883,910.0817070805043,927.7547172413794,0.17610653426017875,0.0,0.2976124650504336,0.1232728451882845,0.040672043119015046,1238.8989850169164,2.2813
8.5156,911.2538506304558,929.4278620689654,0.17702421549155903,0.0,0.29787874995576,0.12304,0.04067144558139535,1238.7626389560173,2.2830987575301203
8.5561,912.9927449078565,931.91,0.17838561072492554,0.0,0.29827378800212356,0.12267057432432431,0.040670559124487006,1238.5603673272112,2.2857672439759034
8.5715,913.6539540898804,932.5852795762213,0.17890327706057596,0.0,0.298424,0.12253010135135134,0.04067022205198358,1238.4834541646528,2.286781927710843
8.6683,917.8101260911736,936.8298940553266,0.18215717974180734,0.0,0.2994227706013363,0.12164712837837836,0.04066810331053352,1238.0,2.293159939759036
8.8959,927.5822825735531,946.81,0.18980788480635546,0.0,0.30177111965985015,0.1195710472972973,0.04066312164158687,1236.94308080138,2.308156174698795
8.9578,930.24,950.1711189634865,0.19188863455809335,0.0,0.30240979631504356,0.11900641891891892,0.04066176678522572,1236.655632214409,2.3122346762048194
8.9745,931.0768903066474,951.0779151943464,0.19245,0.0,0.3025821048795303,0.11885408783783782,0.04066140125854993,1236.5780814647737,2.313335015060241
9.0195,933.3319839473143,953.5213780918729,0.1941545766590389,0.0,0.3030464093946143,0.11844361486486486,0.04066041630642955,1236.3691123789306,2.3163
9.03852,934.2851368594361,954.554148409894,0.19487504439359266,0.0,0.30324265543632317,0.11827012162162162,0.04066,1236.2807881119809,2.3175532003012047
9.0484,934.7802551965425,955.0906242638398,0.19524929366895502,0.0,0.30334459607207936,0.11818,0.04066191163415356,1236.2349077882448,2.3182041792168677
9.0654,935.6321794607944,956.0137102473499,0.19589324485125859,0.0,0.30352,0.11800009569377991,0.040665200883203204,1236.1559639113705,2.3193242846385544
9.4053,952.665653426631,974.47,0.20876848054919908,0.0,0.3071579319727891,0.11440306783000281,0.040730966515672304,1234.577550749635,2.3417198042168677
9.422,953.5025437332786,975.5159628975265,0.20940106788710908,0.0,0.30733667120181407,0.11422633830565719,0.04073419771915049,1234.5,2.3428201430722893
9.4437,954.59,976.8750883392227,0.21022305263157892,0.0,0.307568925170068,0.11399669575007036,0.04073839634881974,1234.4233516483516,2.3442499246987953
9.5505,961.6180834160874,983.5642402826855,0.2142685812356979,0.0,0.308712,0.11286647340275824,0.040759060572261044,1234.046114599686,2.3512868222891568
9.5507,961.6312446209865,983.5767667844524,0.21427615713196035,0.0,0.308715012987013,0.11286435688150857,0.040759099269308686,1234.0454081632654,2.3513
9.63,966.8496623634559,988.5435247349824,0.21728,0.0,0.3099096623376623,0.11202515620602307,0.040774442648699095,1233.765306122449,2.356204430267588
9.7449,974.4107745779544,995.74,0.22238264566929128,0.0,0.31164062337662335,0.1108092147481002,0.04079667410256994,1233.3594583987442,2.363310597200071
9.7458,974.47,995.7865801961404,0.22242261417322828,0.0,0.3116541818181818,0.1107996904024768,0.04079684823928433,1233.3562794348509,2.363366259082049
9.759,975.2977240566039,996.4697564062006,0.2230088188976378,0.0,0.31185303896103894,0.11066,0.04079940224442876,1233.3096546310833,2.3641826333510547
9.8893,983.4683637971699,1003.2135336918698,0.22879537007874015,0.0,0.313816,0.1090509465116279,0.040824613370968106,1232.8494113029828,2.372241236930711
9.91714,985.2141090801887,1004.6544144258146,0.23003172913385825,0.0,0.31412996061760573,0.10870715488372093,0.04083,1232.7510753532183,2.3739630444798867
9.9316,986.1208431603774,1005.4028029104713,0.2306738897637795,0.0,0.3142930306797674,0.10852859069767443,0.04082966182558058,1232.7,2.3748573453836612
10.061,994.2350471698113,1012.1,0.23642047244094488,0.0,0.3157523160216563,0.1069306511627907,0.040826635562103884,1232.2242647058824,2.38286028708134
10.085,995.74,1013.6280575539569,0.23748629921259845,0.0,0.31602297172648885,0.10663427906976743,0.040826074276760445,1232.1360294117646,2.384344603934078
10.115,997.6158823529412,1015.5381294964029,0.23881858267716538,0.0,0.31636129135752955,0.10626381395348837,0.04082537267008115,1232.0257352941176,2.3862
10.138,999.0540588235293,1017.0025179856115,0.23984,0.0,0.31662066974132747,0.10597979069767442,0.040824834771627024,1231.9411764705883,2.387585487077535
10.189,1002.2430588235294,1020.2496402877698,0.24236658682634732,0.0,0.31719581311409667,0.10535,0.04082364204027222,1231.7536764705883,2.3906576540755466
10.339,1011.6224705882353,1029.8,0.24979772455089824,0.0,0.3188874112693002,0.10328243243243243,0.040820134006875744,1231.202205882353,2.3996934393638174
10.388,1014.6864117647058,1032.386111111111,0.2522252295409182,0.0,0.31944,0.10260702702702702,0.04081898804929956,1231.0220588235295,2.402645129224652
10.425,1017.0,1034.338888888889,0.2540582435129741,0.0,0.3200170881612091,0.10209702702702701,0.0408181227343951,1230.8860294117646,2.4048739562624255
10.53,1022.3421052631578,1039.8805555555555,0.25926003992015967,0.0,0.3216547707808564,0.10064972972972974,0.04081566711101756,1230.5,2.4111990059642148
10.591,1025.4456140350876,1043.1,0.2622820359281437,0.0,0.3226061863979849,0.09980891891891892,0.040814240510769664,1230.133082706767,2.4148735586481114
10.618,1026.819298245614,1044.8267441860464,0.2636196407185629,0.0,0.32302730478589425,0.09943675675675676,0.0408136090647583,1229.9706766917293,2.4165
10.639,1027.8877192982454,1046.1697674418604,0.26466,0.0,0.32335484130982367,0.09914729729729731,0.040813117940082785,1229.8443609022556,2.417638036809816
10.67,1029.4649122807016,1048.1523255813952,0.26629005825242724,0.0,0.32383834760705293,0.09872,0.04081239294651418,1229.657894736842,2.4193179959100206
10.675,1029.719298245614,1048.4720930232559,0.2665529708737865,0.0,0.32391633249370283,0.09864280548628428,0.04081227601206763,1229.6278195488721,2.4195889570552147
10.77232,1034.6706666666666,1054.6960465116279,0.2716703021359224,0.010724788370607053,0.32543423032745594,0.0971402914713217,0.04081,1229.0424360902255,2.4248629447852763
10.785,1035.3157894736842,1055.506976744186,0.27233704854368934,0.012122140575079855,0.32563200000000003,0.09694452618453865,0.04081468058599608,1228.9661654135339,2.4255501022494887
10.849,1038.5719298245613,1059.6,0.2757023300970874,0.01917502236421727,0.3265143829787234,0.09595643640897755,0.04083830499480909,1228.5812030075188,2.4290184049079757
10.938,1043.1,1063.0141527001863,0.2803821747572816,0.028982936102236522,0.3277414468085107,0.0945823740648379,0.04087115768831468,1228.0458646616542,2.4338415132924336
10.988,1045.178651685393,1064.9322160148974,0.2830113009708738,0.034493,0.32843080851063833,0.0938104289276808,0.04088961425769985,1227.745112781955,2.4365511247443763
11.071,1048.629213483146,1068.1162011173185,0.2873756504854369,0.045844193181818156,0.32957514893617024,0.092529,0.04092025216287922,1227.2458646616542,2.441049079754601
11.107,1050.1258426966292,1069.4972067039105,0.28926862135922327,0.05076760227272717,0.3300714893617021,0.09193938095238095,0.040933540892836545,1227.0293233082707,2.443
11.154,1052.0797752808987,1071.3001862197393,0.29174,0.057195386363636316,0.33071948936170215,0.09116960052910053,0.0409508900680586,1226.7466165413534,2.4452975836431228
11.161,1052.3707865168537,1071.568715083799,0.29209766037735846,0.05815271590909081,0.330816,0.09105495238095239,0.04095347398777252,1226.7045112781955,2.445639776951673
11.195,1053.7842696629214,1072.8729981378026,0.29383486792452834,0.06280260227272724,0.3314244210526316,0.09049808994708994,0.04096602445495443,1226.5,2.4473018587360595
11.252,1056.1539325842696,1075.0595903165736,0.29674724528301893,0.070598,0.3324444210526316,0.08956452645502644,0.040987064944053526,1226.0537366548042,2.4500882899628253
11.386,1061.7247191011236,1080.2,0.3035938867924528,0.08892249999999985,0.3348423157894737,0.08736983333333334,0.041036528550005766,1225.0046263345196,2.456638847583643
11.449,1064.3438202247191,1082.2644067796612,0.3068128301886793,0.09753774999999995,0.3359696842105263,0.086338,0.04105978382743108,1224.5113879003559,2.459718587360595
11.472,1065.3,1083.0180790960453,0.307988,0.10068299999999993,0.33638126315789474,0.08597232584269664,0.041068273849348254,1224.3313167259787,2.460842936802974
11.516,1067.3236641221374,1084.4598870056498,0.31023615094339624,0.1067,0.3371686315789474,0.08527277528089887,0.0410845156304072,1223.9868327402135,2.462993866171004
11.541,1068.4734732824427,1085.2790960451978,0.3115135094339623,0.11086761363636369,0.337616,0.08487530337078651,0.04109374391509978,1223.791103202847,2.4642159851301115
11.63922,1072.9908435114503,1088.497604519774,0.31653199547169814,0.12724133409090904,0.33987506,0.08331371573033708,0.04113,1223.0221209964413,2.4690174460966543
11.645,1073.256679389313,1088.6870056497175,0.316827320754717,0.12820488636363628,0.34000800000000003,0.0832218202247191,0.041134045870132564,1222.9768683274021,2.4693
11.684,1075.0503816793894,1089.9649717514123,0.31882,0.13470636363636349,0.340905,0.08260176404494383,0.041161344993864396,1222.6715302491104,2.471520391517129
11.692,1075.418320610687,1090.2271186440678,0.31937720164609057,0.13604,0.34108900000000003,0.08247457303370787,0.041166944814117076,1222.6088967971532,2.4719758564437195
11.74,1077.6259541984732,1091.8,0.3227204115226338,0.1420693670886076,0.3421930000000001,0.08171142696629213,0.04120054373563318,1222.2330960854092,2.4747086460032626
11.837,1082.087213740458,1095.4976501305482,0.3294764814814815,0.15425371308016872,0.34442400000000006,0.08016923595505618,0.04126844155619696,1221.4736654804271,2.480231158238173
11.894,1084.7087786259542,1097.670496083551,0.33344654320987654,0.16141358649789028,0.34531325984251976,0.079263,0.04130834027549733,1221.0274021352313,2.4834763458401308
11.929,1086.3185114503817,1099.0046997389034,0.3358843004115227,0.16581,0.3458592965879266,0.07860690274314214,0.04133283948910282,1220.7533807829182,2.485469004893964
11.996,1089.4,1101.5587467362925,0.3405508641975309,0.18235206896551734,0.3469045669291339,0.0773509451371571,0.041379737983719043,1220.228825622776,2.48928352365416
12.038,1090.7504424778763,1103.1597911227154,0.3434761728395062,0.19272172413793112,0.3475598110236221,0.07656362842892768,0.041409137040045625,1219.9,2.4916747145187603
12.045,1090.9755162241888,1103.426631853786,0.3439637242798354,0.19445,0.3476690183727035,0.07643240897755611,0.04141403688276672,1219.8316758747699,2.492073246329527
12.123,1093.4834808259586,1106.4,0.34939644032921807,0.21247741379310336,0.3488859002624672,0.07497024937655862,0.041468635130230386,1219.070349907919,2.4965140293637846
12.161,1094.7053097345133,1107.819411764706,0.35204314814814813,0.22126,0.3494787401574803,0.07425791521197009,0.041495234276430634,1218.6994475138122,2.49867748776509
12.17,1094.9946902654867,1108.1555882352943,0.35267,0.22367386206896564,0.34961914960629925,0.07408920448877807,0.0415015340742149,1218.6116022099447,2.499189885807504
12.218,1096.538053097345,1109.9485294117649,0.35570570057581574,0.23654779310344842,0.350368,0.07318941396508728,0.041535132995731,1218.143093922652,2.501922675367047
12.258,1097.8241887905604,1111.4426470588235,0.3582354510556621,0.24727606896551718,0.3512735782312925,0.07243958852867832,0.041563132096994415,1217.752670349908,2.5042
12.295,1099.0138643067846,1112.8247058823529,0.36057547024952014,0.25719972413793124,0.3521112380952381,0.071746,0.04158903126566307,1217.3915285451196,2.5061384462151395
12.306,1099.367551622419,1113.235588235294,0.3612711516314779,0.26015,0.3523602721088435,0.07155306250000001,0.04159673101851052,1217.284162062615,2.5067147410358563
12.335,1100.3,1114.3188235294117,0.36310522072936663,0.26907409090909135,0.35301681632653065,0.07104440909090907,0.041617030366926495,1217.0011049723757,2.50823406374502
12.394,1101.8825520833332,1116.5226470588236,0.36683660268714013,0.28723,0.3543525442176871,0.0700095625,0.041658329041290035,1216.4252302025782,2.5113250996015934
12.463,1103.7333333333333,1119.1,0.37120042226487515,0.30591519999999967,0.35591466666666666,0.0687993181818182,0.04170662749096942,1215.7517495395948,2.5149400398406376
12.512,1105.04765625,1120.944705882353,0.37429936660268714,0.3191843999999999,0.357024,0.06793986931818181,0.041740926390017107,1215.2734806629833,2.517507171314741
12.569,1106.5765625,1123.090588235294,0.37790426103646835,0.33462,0.3580473176470588,0.06694010227272726,0.04178082510931748,1214.7171270718231,2.520493426294821
12.581,1106.8984375,1123.5423529411764,0.3786631861804222,0.33963639344262236,0.3582627529411765,0.06672962500000001,0.0417892248396965,1214.6,2.521122111553785
12.647,1108.66875,1126.0270588235294,0.3828372744721689,0.36722655737704896,0.35944764705882354,0.065572,0.041835423356781136,1213.9386221294362,2.5245798804780875
12.691,1109.8489583333333,1127.6835294117648,0.38562,0.38562,0.36023757647058824,0.06466023003194887,0.0418662223681709,1213.4977035490604,2.5268850597609562
12.719,1110.6,1128.7376470588235,0.38749733333333325,0.39256084507042227,0.3607402588235294,0.06408001277955273,0.041885821739055286,1213.2171189979122,2.5283519920318724
12.76,1111.8348235294118,1130.2811764705882,0.39024628571428566,0.40272422535211255,0.3614763294117647,0.06323040894568692,0.04191452081785029,1212.8062630480167,2.5305
12.7964,1112.931105882353,1131.6515294117648,0.39268681904761904,0.411747323943662,0.36212981647058823,0.062476126517571895,0.04194,1212.4415031315239,2.532458275154004
12.803,1113.1298823529412,1131.9,0.3931293333333334,0.4133833802816903,0.36224830588235296,0.06233936102236422,0.04195113070141817,1212.3753653444676,2.5328133470225875
12.833,1114.0334117647058,1132.5,0.39514076190476194,0.42082,0.3627868941176471,0.06171769968051119,0.042001724798773475,1212.074739039666,2.5344273100616017
12.852,1114.6056470588235,1132.88,0.3964146666666667,0.4260540476190477,0.363128,0.061323980830670935,0.042033767727098506,1211.884342379958,2.5354494866529773
12.959,1117.8282352941176,1135.02,0.4035887619047619,0.45553,0.3650041297935103,0.05910672204472846,0.04221422000766577,1210.812108559499,2.541205954825462
12.96,1117.8583529411765,1135.0400000000002,0.4036558095238096,0.455769133858268,0.36502166371681416,0.059086,0.042215906477577614,1210.8020876826722,2.541259753593429
13.06,1120.8701176470588,1137.0400000000002,0.4103605714285715,0.47968251968503944,0.3667750560471976,0.056651714285714284,0.04238455346876198,1209.8,2.546639630390144
13.086,1121.6531764705883,1137.5600000000002,0.4121038095238096,0.4859,0.3672309380530973,0.05601880000000001,0.04242840168646991,1209.4626297577854,2.54803839835729
13.144,1123.4,1138.72,0.4159925714285715,0.5066875362318843,0.3682479056047197,0.05460691428571429,0.04252621694135684,1208.7100346020761,2.5511587268993843
13.155,1123.814117647059,1138.94,0.41673009523809523,0.51063,0.3684407787610619,0.05433914285714288,0.04254476811038712,1208.5673010380622,2.551750513347023
13.191,1125.169411764706,1139.66,0.41914380952380964,0.5180633333333337,0.36907199999999996,0.05346279999999999,0.04260548102721349,1208.1001730103806,2.55368726899384
13.205,1125.6964705882353,1139.94,0.4200824761904763,0.5209540740740742,0.36932995275590547,0.053122,0.0426290916059793,1207.9185121107266,2.5544404517453803
13.216,1126.1105882352942,1140.16,0.42082,0.5232253703703703,0.3695326299212598,0.05281772988505749,0.04264764277500958,1207.7757785467127,2.555032238193019
13.228,1126.5623529411766,1140.4,0.42177642105263163,0.5257031481481482,0.36975373228346453,0.05248579885057472,0.042667880413951705,1207.6200692041523,2.5556778234086246
13.247,1127.2776470588235,1140.640294117647,0.423290754385965,0.5296262962962963,0.370103811023622,0.05196024137931035,0.04269992334227673,1207.3735294117646,2.5567
13.263,1127.88,1140.8426470588236,0.4245659824561404,0.53293,0.3703986141732283,0.05151766666666667,0.04272690686086623,1207.1659169550173,2.5575124031007754
13.379,1132.2470588235294,1142.309705882353,0.4338113859649123,0.5637245299145296,0.37253593700787396,0.048309,0.04292253737064009,1205.6607266435985,2.5634023255813956
13.38,1132.2847058823531,1142.3223529411766,0.43389108771929835,0.56399,0.3725543622047244,0.04829151923076921,0.04292422384055193,1205.6477508650519,2.563453100775194
13.445,1134.7317647058824,1143.1444117647059,0.43907170175438603,0.5795337007874016,0.373752,0.04715526923076922,0.043033844384821766,1204.8043252595155,2.5667534883720933
13.484,1136.2,1143.6376470588236,0.44218007017543864,0.5888599212598425,0.3746041422924901,0.04647351923076923,0.04309961671138367,1204.2982698961937,2.5687337209302328
13.507,1136.9441176470589,1143.9285294117647,0.4440132105263158,0.59436,0.37510668774703554,0.04607146153846154,0.04313840551935607,1203.9998269896194,2.569901550387597
13.568,1138.9176470588236,1144.7,0.44887501754385967,0.604394644549763,0.3764395256916996,0.04500513461538462,0.043241280183978534,1203.2083044982699,2.5729988372093024
13.638,1141.1823529411765,1146.5039215686274,0.4544541403508772,0.6159098104265402,0.37796901185770754,0.043781480769230774,0.04335933307780759,1202.3,2.5765531007751936
13.691,1142.8970588235295,1147.8697478991598,0.4586783333333334,0.6246284360189575,0.37912705138339925,0.042855,0.0434487159831353,1201.5939962476548,2.5792441860465116
13.698,1143.1235294117648,1148.0501400560224,0.45923624561403514,0.6257799526066352,0.37928000000000006,0.04271257239057239,0.043460521272518204,1201.5007504690432,2.5795996124031007
13.70955,1143.497205882353,1148.347787114846,0.460156800877193,0.6276799549763034,0.37961040000000007,0.04247756683501684,0.04348,1201.346894934334,2.580186065891473
13.718,1143.770588235294,1148.5655462184875,0.4608302807017544,0.62907,0.37985212121212125,0.04230563636363637,0.043497933164396575,1201.2343339587242,2.58061511627907
13.763,1145.2264705882353,1149.7252100840337,0.4644168596491228,0.6392337931034483,0.381139393939394,0.04139003030303031,0.04359343522331327,1200.6348968105065,2.5829
13.786,1145.9705882352941,1150.3179271708684,0.46625,0.6444286206896551,0.3817973333333334,0.04092205387205389,0.04364224738675958,1200.3285178236397,2.584065570599613
13.863,1148.4617647058824,1152.3022408963586,0.4722593939393939,0.66182,0.384,0.03935535016835018,0.04380566202090592,1199.302814258912,2.5879676982591877
13.892,1149.4,1153.0495798319328,0.47452267217630856,0.6672294666666666,0.3846159689922481,0.038765292929292934,0.04386720779220779,1198.9165103189493,2.589437330754352
13.925,1149.9972850678735,1153.9,0.4770981267217632,0.6733850666666669,0.3853168992248062,0.038093848484848467,0.04393724263541337,1198.476923076923,2.591109671179884
13.988,1151.137556561086,1154.388913525499,0.48201490358126725,0.6851366666666666,0.38665503875968993,0.036812,0.04407094551789673,1197.6377110694184,2.5943023210831724
14.013,1151.5900452488688,1154.5829268292684,0.4839660055096419,0.6898,0.3871860465116279,0.036259416666666655,0.0441240022172949,1197.3046904315197,2.5955692456479693
14.121,1153.5447963800907,1155.4210643015522,0.4923947658402205,0.7045585826771654,0.38948000000000005,0.033872256666666656,0.044353207158694966,1195.8660412757974,2.601042359767892
14.149,1154.0515837104074,1155.638359201774,0.49458,0.7083848818897637,0.39024567272727273,0.03325336333333335,0.044412630662020905,1195.493058161351,2.6024613152804643
14.171,1154.4497737556562,1155.809090909091,0.4966466031746032,0.7113912598425196,0.3908472727272727,0.03276709000000001,0.044459320557491286,1195.2,2.6035762088974854
14.267,1156.1873303167422,1156.5541019955656,0.505664507936508,0.72451,0.3934724363636363,0.030645170000000017,0.044663058283180235,1193.4786206896551,2.6084411992263057
14.28,1156.4226244343893,1156.6549889135256,0.5068856825396826,0.7260643700787401,0.39382792727272725,0.030357826666666685,0.04469064776686728,1193.2455172413793,2.6091
14.288,1156.5674208144796,1156.7170731707317,0.5076371746031747,0.7270209055118111,0.3940466909090909,0.030181,0.04470762591067469,1193.1020689655172,2.60947504456328
14.334,1157.4,1157.0740576496676,0.511958253968254,0.7325209842519684,0.3953045818181818,0.028978983122362884,0.04480525023756731,1192.2772413793105,2.611631550802139
14.34095,1157.5262106537532,1157.1279933481153,0.5126111126984126,0.7333519744094488,0.3954946327272727,0.028797374050632932,0.04482,1192.1526206896551,2.6119573707664885
14.341,1157.527118644068,1157.128381374723,0.5126158095238095,0.7333579527559054,0.39549599999999996,0.02879606751054855,0.044820079118526535,1192.151724137931,2.611959714795009
14.376,1158.162711864407,1157.4,0.5159035873015873,0.7375427952755905,0.3963405901639344,0.027881489451476813,0.044875462087100186,1191.5241379310346,2.6136005347593585
14.461,1159.7062953995157,1159.1183288409704,0.5238881904761905,0.7477059842519684,0.39839173770491804,0.025660371308016877,0.045009963582207636,1190.0,2.617585383244207
14.464,1159.760774818402,1159.17897574124,0.52417,0.7480646850393701,0.39846413114754103,0.025581978902953585,0.04501471069379967,1189.940350877193,2.617726024955437
14.521,1160.7958837772399,1160.3312668463614,0.5290225283018869,0.75488,0.3998396065573771,0.02409252320675104,0.04510490581404819,1188.8070175438597,2.620398217468806
14.525,1160.8685230024214,1160.412129380054,0.5293630566037736,0.755505123966942,0.399936131147541,0.023988,0.04511123529617089,1188.727485380117,2.620585739750446
14.585,1161.9581113801453,1161.625067385445,0.5344709811320756,0.7648819834710744,0.4013840000000001,0.02249477966101693,0.04520617752801145,1187.5345029239766,2.6233985739750447
14.702,1164.0828087167072,1163.990296495957,0.5444314339622642,0.7831668595041321,0.40373664864864867,0.019583,0.04539131488010053,1185.208187134503,2.6288836007130127
14.729,1164.5731234866828,1164.536118598383,0.54673,0.7873864462809915,0.4042795675675676,0.01904845110410096,0.045434038884428776,1184.6713450292398,2.6301493761140824
14.747,1164.9,1164.9,0.5484696977329976,0.7901995041322314,0.4046415135135136,0.01869208517350158,0.04546252155398094,1184.3134502923976,2.6309932263814617
14.763,1165.1123680241328,1165.1123680241328,0.5500160957178842,0.7927,0.4049632432432433,0.01837531545741325,0.04548783948247175,1183.995321637427,2.6317433155080217
14.803,1165.6432880844648,1165.6432880844648,0.553882090680101,0.7975896860986548,0.4057675675675676,0.017583391167192413,0.045551134303698795,1183.2,2.633618538324421
14.841,1166.1476621417798,1166.1476621417798,0.5575547858942066,0.8022348878923765,0.4065316756756757,0.016831063091482662,0.045611264383864474,1182.495752895753,2.6354
14.881,1166.6785822021118,1166.6785822021118,0.5614207808564233,0.8071245739910313,0.40733600000000003,0.016039138801261826,0.04567455920509151,1181.7544401544403,2.637319413919414
14.986,1168.0722473604828,1168.0722473604828,0.5715690176322419,0.81996,0.40987192417061613,0.013960337539432165,0.04584070811081248,1179.8084942084943,2.6423578754578756
15.019,1168.5102564102565,1168.5102564102565,0.5747584634760706,0.8240118396226415,0.4106689289099526,0.013307,0.04589292633832478,1179.1969111969113,2.643941391941392
15.062,1169.0809954751132,1169.0809954751132,0.5789144080604534,0.8292915094339621,0.4117074502369668,0.012685183142857152,0.04596096827114384,1178.4,2.646004761904762
15.092,1169.479185520362,1169.479185520362,0.581813904282116,0.832975,0.412432,0.01225135742857142,0.04600843938706412,1177.8044943820225,2.6474443223443225
15.126,1169.9304675716442,1169.9304675716442,0.5851,0.8371496226415094,0.41325444549763035,0.011759688285714293,0.0460622399851071,1177.1295880149814,2.6490758241758243
15.198,1170.8861236802413,1170.8861236802413,0.5924840909090909,0.84599,0.4149960947867299,0.010718506571428565,0.046176170663315766,1175.7003745318352,2.6525307692307694
15.20042,1170.9182443438915,1170.9182443438915,0.5927322784090908,0.8462420026666666,0.41505463355450234,0.010683511297142866,0.04618,1175.6523370786517,2.6526468937728938
15.303,1172.2797888386124,1172.2797888386124,0.6032525568181819,0.856924,0.417536,0.009200116571428557,0.04641042391429559,1173.6161048689137,2.657569230769231
15.329,1172.6248868778282,1172.6248868778282,0.6059190340909092,0.8596314666666667,0.41742485762144055,0.008824134285714274,0.046468827324041014,1173.1,2.6588168498168496
15.369,1173.15580693816,1173.15580693816,0.6100213068181818,0.8637967999999999,0.4172538693467337,0.0082457,0.04655867872364935,1172.2036414565825,2.6607362637362635
15.387,1173.3947209653093,1173.3947209653093,0.6118673295454546,0.8656712,0.4171769246231156,0.008024803999999993,0.0465991118534731,1171.8002801120447,2.6616
15.41,1173.7,1173.7,0.6142261363636364,0.8680662666666666,0.41707860636515914,0.007742547999999997,0.0466507764082479,1171.2848739495798,2.6626760714285713
15.423,1174.0034638554218,1174.0034638554218,0.615559375,0.86942,0.4170230351758794,0.007583011999999999,0.04667997811312061,1170.9935574229692,2.6632842857142855
15.478,1175.2873493975903,1175.2873493975903,0.6212,0.874948947368421,0.4167879262981575,0.006908052000000005,0.046803523787582076,1169.7610644257702,2.6658575
15.67,1179.7692771084337,1179.7692771084337,0.6383820963172805,0.89425,0.4159671825795645,0.00455182800000001,0.04723481050570211,1165.4585434173669,2.674840357142857
15.686,1180.1427710843375,1180.1427710843375,0.6398139376770539,0.8965668932038835,0.41589878726968177,0.004355476000000011,0.047270751065545444,1165.1,2.6755889285714285
15.694,1180.3295180722891,1180.3295180722891,0.6405298583569407,0.8977253398058254,0.4158645896147404,0.0042573,0.04728872134546711,1164.8890547263682,2.6759632142857144
15.831,1183.5275602409638,1183.5275602409638,0.65279,0.9175637378640776,0.4152789547738694,0.0022783756126482273,0.047596462389125675,1161.276616915423,2.682372857142857
15.876,1184.5780120481927,1184.5780120481927,0.6569348979591837,0.92408,0.41508659296482414,0.0016283639525691727,0.04769754521368506,1160.0900497512437,2.6844782142857144
15.887,1184.8347891566266,1184.8347891566266,0.6579480952380953,0.9250829032258066,0.41503957118927975,0.0014694722134387223,0.04772225434857735,1159.8,2.6849928571428574
15.8949,1185.019201807229,1185.019201807229,0.6586757551020408,0.9258031700879766,0.41500580100502515,0.001355359055335964,0.04774,1159.6513588850173,2.6853624642857143
15.9,1185.1382530120482,1185.1382530120482,0.6591455102040817,0.9262681524926687,0.414984,0.0012816910671936631,0.047757660769384445,1159.5554006968641,2.6856010714285716
15.947,1186.235391566265,1186.235391566265,0.6634746258503401,0.930553284457478,0.414515323943662,0.00060279,0.047920416879397985,1158.6710801393729,2.6878
16.074,1189.2,1189.2,0.675172448979592,0.9421322580645164,0.4132489014084507,0.0005919358485750742,0.048360204666030325,1156.2815331010454,2.692940902679831
16.174,1192.237156704362,1192.292105263158,0.6843833333333333,0.9512495601173021,0.4122517183098592,0.0005833892726499362,0.04870649426180381,1154.4,2.6969888575458394
16.217,1193.5431340872374,1193.6217105263158,0.6883440136054422,0.95517,0.4118229295774648,0.0005797142450021267,0.048855398787986414,1153.2666666666667,2.698729478138223
16.272,1195.2135702746364,1195.3223684210525,0.69341,0.9600057142857142,0.4112744788732394,0.0005750136282433008,0.049045858065661835,1151.817054263566,2.7009558533145275
16.326,1196.853634894992,1196.992105263158,0.6984728571428573,0.9647535064935067,0.410736,0.0005703984772437259,0.04923285444737952,1150.3937984496124,2.7031417489421723
16.34539,1197.4425395799676,1197.5916644736842,0.7002907978835978,0.9664583155844155,0.4105432339181287,0.0005687412961718418,0.0493,1149.8827441860465,2.7039266473906913
16.432,1200.0730210016154,1200.2697368421052,0.7084110582010582,0.9740732467532467,0.40968219883040935,0.0005613391067630796,0.04984218138041733,1147.6,2.707432581100141
16.525,1202.897576736672,1203.145394736842,0.7171304232804233,0.98225,0.40875763742690063,0.000553390791152701,0.0504243643659711,1145.0674107142856,2.711197179125529
16.59459,1205.0111340872375,1205.2971907894737,0.7236549460317462,0.9837011903525046,0.40806580701754386,0.0005474432289663972,0.05086,1143.172325892857,2.714014150916784
16.65,1206.6940226171243,1207.0105263157895,0.72885,0.9848566790352504,0.4075149473684211,0.0005427075712462782,0.05150002906326848,1141.6633928571428,2.7162571227080394
16.656,1206.8762520193861,1207.196052631579,0.7292797641509434,0.9849817996289425,0.40745529824561405,0.0005421947766907699,0.051569333780460525,1141.5,2.7165
16.668,1207.2407108239095,1207.5671052631578,0.7301392924528303,0.9852320408163265,0.40733600000000003,0.0005411691875797533,0.051707943214844614,1141.2227586206895,2.7172955056179773
16.682,1207.66591276252,1208.0,0.7311420754716981,0.9855239888682745,0.40719645901639345,0.000539972666950234,0.05186965422162603,1140.8993103448277,2.7182235955056178
16.693,1208.0,1208.658099352052,0.7319299764150945,0.9857533766233766,0.4070868196721312,0.0005390325435984685,0.05199671286981147,1140.645172413793,2.7189528089887642
16.72878,1210.1927123893804,1210.7987170626352,0.7344928033018869,0.9864995124304267,0.40673019278688527,0.0005359745787324541,0.05241,1139.8185310344827,2.7213247415730337
16.83422,1216.6544115044246,1217.106898488121,0.742045191981132,0.9886982983302411,0.4056792498360656,0.0005269630690769886,0.05397,1137.3825034482759,2.728314584269663
16.92687,1222.3322986725664,1222.6498898488123,0.748681466745283,0.9906303688311688,0.40475578754098357,0.0005190446664823478,0.05553,1135.2419689655171,2.7344565505617977
16.946,1223.5046460176993,1223.7943844492443,0.7500516981132076,0.9910292949907236,0.40456511475409834,0.0005174097065078687,0.055841348982785616,1134.8,2.735724719101124
17.02272,1228.2062920353983,1228.3843282937366,0.7555469490566037,0.9926291703153989,0.4038004301639344,0.0005108527734581029,0.05709,1133.2989565217392,2.7408106516853934
17.064,1230.7360619469027,1230.8539956803456,0.7585037264150942,0.99349,0.40338898360655734,0.0005073247469162058,0.05723328868319167,1132.4913043478261,2.743547191011236
17.074,1231.34889380531,1231.4522678185747,0.75922,0.993485602294455,0.4032893114754098,0.0005064700893236919,0.057268000089003616,1132.295652173913,2.744210112359551
17.095,1232.6358407079647,1232.7086393088553,0.7607688372093021,0.9934763671128107,0.40308,0.000504675308379413,0.057340894041208665,1131.8847826086958,2.745602247191011
17.145,1235.7,1235.7,0.7644565448504982,0.993454378585086,0.40258257611241216,0.0005004020204168438,0.05751445107026835,1130.9065217391305,2.748916853932584
17.19,1238.0351351351353,1239.4894736842107,0.7677754817275748,0.9934345889101338,0.4021348946135831,0.0004965560612505316,0.057670652396422065,1130.0260869565218,2.7519
17.36,1246.8567567567568,1253.8052631578948,0.7803136877076412,0.99335982791587,0.4004436533957845,0.00048202688217779667,0.05826074629522496,1126.7,2.7610083172147
17.375,1247.6351351351352,1255.0684210526317,0.78142,0.9933532313575526,0.40029442622950817,0.0004807448957890259,0.05831281340394286,1126.2588235294118,2.761811992263056
17.47214,1252.6759135135135,1263.2486315789474,0.7867742393088553,0.9933105120458892,0.39932803110070253,0.0004724427519353466,0.05865,1123.4017647058824,2.767016591876209
17.487,1253.447027027027,1264.5,0.787593304535637,0.9933039770554494,0.39918019672131144,0.0004711727307528712,0.05870047359799576,1122.964705882353,2.7678127659574465
17.522,1255.2632432432433,1268.057142857143,0.7895224622030237,0.9932885850860421,0.39883199999999996,0.0004681814291790728,0.05881935488533436,1121.9352941176471,2.769688007736944
17.587,1258.6362162162163,1274.6632653061226,0.7931051835853131,0.99326,0.39803560360360357,0.0004626261548277328,0.05904013441896319,1120.0235294117647,2.773170599613153
17.632,1260.9713513513514,1279.236734693878,0.7955855291576674,0.9933844262295082,0.3974842522522522,0.0004587801956614205,0.05919298178839854,1118.7,2.7755816247582206
17.7,1264.5,1286.147755102041,0.799333606911447,0.9935724480874317,0.39665109909909907,0.00045296852403232664,0.059423951146656384,1116.9281690140847,2.7792249516441005
17.707,1265.0327586206897,1286.8591836734697,0.7997194384449244,0.9935918032786886,0.3965653333333333,0.0004523702637175669,0.05944772740412411,1116.7457746478874,2.7796
17.732,1266.9354679802955,1289.4,0.8010974082073433,0.9936609289617486,0.39625902702702703,0.00045023361973628244,0.059532642609365964,1116.0943661971833,2.7810112903225805
17.838,1275.0029556650247,1298.654489164087,0.80694,0.9939540218579235,0.3949602882882883,0.0004411742492556358,0.05989268307959145,1113.3323943661971,2.7869951612903225
17.88726,1278.7520541871922,1302.9552074303408,0.8101545059055119,0.9940902271038251,0.39435674234234236,0.0004369642059549126,0.06006,1112.0488591549295,2.7897759677419356
17.916,1280.939408866995,1305.4643962848297,0.8120299606299213,0.9941696939890711,0.39400461261261266,0.000434507920034028,0.06007411252840617,1111.3,2.7913983870967742
18.055,1291.518472906404,1317.6,0.8211005314960629,0.9945540327868853,0.3923015495495496,0.00042262817949808586,0.060142367276090854,1106.5576470588235,2.7992451612903224
18.077,1293.1928571428573,1319.969230769231,0.8225361614173229,0.9946148633879781,0.39203200000000005,0.0004207479327945553,0.06015317018579635,1105.8070588235294,2.8004870967741935
18.086,1293.877832512315,1320.9384615384613,0.823123464566929,0.9946397486338797,0.3919195822454309,0.00041997874096129313,0.06015758955794859,1105.5,2.8009951612903223
18.106,1295.4,1323.092307692308,0.8244285826771655,0.9946950491803279,0.3916697650130549,0.00041826942577626524,0.06016741038495358,1105.036231884058,2.802124193548387
18.237,1313.371900826446,1337.2,0.8329771062992125,0.9950572677595628,0.39003346214099227,0.0004070734113143344,0.060231736801836265,1101.9985507246377,2.8095193548387094
18.293,1321.0545454545454,1344.0472727272727,0.836631437007874,0.9952121092896175,0.38933397389033947,0.0004022873287962569,0.06025923511745024,1100.7,2.81268064516129
18.327,1325.7190082644631,1348.2045454545457,0.8388501377952757,0.9953061202185792,0.3889092845953003,0.0003993814929817097,0.06027593052335872,1099.4675,2.8146
18.346,1328.3256198347108,1350.5277272727274,0.84009,0.9953586557377049,0.38867195822454315,0.0003977576435559336,0.06028526030901347,1098.77875,2.8156328660436136
18.348,1328.6,1350.7722727272726,0.8401943352601156,0.9953641857923496,0.38864697650130553,0.0003975867120374309,0.060286242391713964,1098.7062500000002,2.8157415887850465
18.453,1333.8857142857141,1363.6109090909088,0.845671936416185,0.9956545136612022,0.38733543603133164,0.00038861280731603573,0.06033780173349016,1094.9,2.82144953271028
18.457,1334.087074829932,1364.1,0.8458806069364162,0.9956655737704918,0.38728547258485646,0.0003882709442790301,0.06033976589889116,1094.7298507462688,2.8216669781931465
18.46,1334.2380952380952,1364.6267045454545,0.8460371098265896,0.995673868852459,0.38724800000000004,0.00038801454700127593,0.06034123902294191,1094.6022388059703,2.821830062305296
18.502,1336.3523809523808,1372.000568181818,0.8482281502890173,0.99579,0.3866846060606061,0.00038442498511271803,0.06036186275965239,1092.8156716417911,2.8241132398753894
18.587,1340.6312925170066,1386.9238636363636,0.8526623988439306,0.9957687090558767,0.3855444040404041,0.00037716039557635046,0.060403601274423596,1089.2,2.8287339563862925
18.633,1342.94693877551,1395.0,0.8550621098265896,0.9957571868978805,0.3849273535353536,0.00037322897065078693,0.060426189176535076,1087.5985185185186,2.8312345794392524
18.722,1347.4272108843536,1411.1725714285717,0.8597050289017342,0.9957348940269749,0.383733494949495,0.0003656225180774137,0.060469891856707286,1084.5,2.836072741433022
18.76295,1349.4886394557823,1418.6137714285715,0.8618412933526012,0.9957246368015414,0.38318418585858594,0.0003621226952360697,0.06049,1083.2417597765364,2.838298839563863
18.789,1350.8,1423.3474285714287,0.863200260115607,0.9957181117533719,0.38283474747474755,0.00035989631220757106,0.06050149314642682,1082.4413407821228,2.839714953271028
18.808,1354.2372727272725,1426.8,0.8641914450867052,0.995713352601156,0.38257987878787886,0.00035827246278179496,0.06050987586359033,1081.8575418994415,2.840747819314642
18.856,1362.9209090909092,1437.5009174311929,0.8666954913294799,0.9957013294797687,0.38193600000000005,0.00035417010633772845,0.060531053254319206,1080.3826815642458,2.843357165109034
18.899,1370.7,1447.0871559633026,0.8689386994219653,0.9956905587668593,0.3813991111111112,0.00035049507868991904,0.060550024666847155,1079.0614525139665,2.845694704049844
18.901,1371.0850931677016,1447.5330275229353,0.8690430346820809,0.9956900578034682,0.3813741395348838,0.0003503241471714164,0.060550907058127525,1079.0,2.845803426791277
18.917,1374.165838509317,1451.1,0.8698777167630058,0.9956860500963391,0.3811743669250646,0.00034895669502339413,0.060557966188370484,1078.4966292134832,2.8466732087227413
18.969,1384.1782608695655,1460.269230769231,0.8725904335260116,0.9956730250481696,0.3805251059431525,0.00034451247554232226,0.0605809083616601,1076.8606741573033,2.8495
19.021,1394.190683229814,1469.4384615384618,0.8753031502890174,0.99566,0.3798758449612403,0.00034006825606125045,0.06060385053494972,1075.2247191011236,2.8523212765957444
19.038,1397.4639751552797,1472.4360946745564,0.87619,0.995664299610895,0.3796635865633075,0.000338615338153977,0.06061135086083286,1074.6898876404496,2.8532436170212763
19.06,1401.7,1476.3153846153846,0.8771621932114883,0.9956698638132295,0.37938889922480623,0.00033673509145044667,0.060621057164916926,1073.997752808989,2.8544372340425532
19.079,1404.2605734767028,1479.6656804733732,0.8780018146214099,0.9956746692607004,0.37915166925064603,0.00033511124202467024,0.06062943988208044,1073.4,2.855468085106383
19.086,1405.2039426523297,1480.9,0.8783111488250652,0.9956764396887159,0.3790642687338502,0.00033451298170991076,0.060632528251561735,1073.1918300653597,2.8558478723404255
19.243,1426.3623655913977,1515.9080745341612,0.8852490731070496,0.9957161478599221,0.377104,0.00032109485750744375,0.06070179596707076,1068.5228758169935,2.8643659574468083
19.247,1426.9014336917564,1516.8,0.8854258355091384,0.9957171595330739,0.3770220487804878,0.00032075299447043807,0.0607035607496315,1068.4039215686275,2.864582978723404
19.339,1439.3,1531.301694915254,0.8894913707571801,0.9957404280155642,0.3751371707317074,0.000312890144619311,0.060744150748528514,1065.6679738562093,2.8695744680851063
19.385,1445.8144508670523,1538.5525423728816,0.8915241383812011,0.9957520622568093,0.3741947317073171,0.00030895871969374716,0.06076444574797702,1064.3,2.8720702127659576
19.424,1451.337572254335,1544.7,0.8932475718015666,0.9957619260700389,0.3733957073170732,0.00030562555508294344,0.06078165237794423,1063.2266055045873,2.874186170212766
19.489,1460.542774566474,1559.4797619047622,0.8961199608355092,0.9957783657587548,0.37206400000000006,0.0003000702807316035,0.06081033009455625,1061.437614678899,2.877712765957447
19.508,1463.2335260115606,1563.8,0.8969595822454308,0.9957831712062256,0.3718027917888564,0.0002984464313058274,0.06081871281171976,1060.9146788990827,2.878743617021277
19.512,1463.8,1564.5819548872182,0.8971363446475196,0.9957841828793774,0.3717478005865103,0.0002981045682688217,0.0608204775942805,1060.8045871559632,2.8789606382978725
19.533,1467.3220472440946,1568.6872180451132,0.8980643472584857,0.9957894941634241,0.3714590967741936,0.0002963097873245426,0.060829742702724385,1060.226605504587,2.8801
19.535,1467.6574803149606,1569.078195488722,0.8981527284595301,0.99579,0.3714316011730206,0.00029613885580603996,0.060830625094004755,1060.1715596330275,2.880211440677966
19.603,1479.0622047244096,1582.371428571429,0.9011576892950393,0.9959946017699115,0.37049675073313787,0.00029032718417694583,0.060860626397537324,1058.3,2.8840004237288137
19.639,1485.1,1589.4090225563912,0.9027485509138381,0.9961029203539823,0.3700018299120235,0.0002872504168438962,0.06087650944058398,1056.7715083798882,2.8860063559322033
19.641,1485.4354330708659,1589.8,0.9028369321148825,0.9961089380530973,0.36997433431085053,0.00028707948532539357,0.06087739183186435,1056.686592178771,2.8861177966101694
19.76024,1505.433952755906,1616.8277333333335,0.9081062193211489,0.9964677132743363,0.36833504656891497,0.0002768885481922586,0.06093,1051.6238882681564,2.8927618898305085
19.761,1505.5614173228348,1617.0,0.9081398041775457,0.99647,0.36832459824046926,0.00027682359421522763,0.06093091844770931,1051.591620111732,2.8928042372881357
19.766,1506.4,1617.8816568047334,0.9083607571801566,0.9964850442477876,0.36825585923753673,0.0002763962654189708,0.06093696086684952,1051.3793296089386,2.8930828389830507
19.782,1508.8062992125988,1620.7029585798819,0.9090678067885117,0.9965331858407079,0.3680358944281525,0.0002750288132709485,0.0609562966080982,1050.7,2.89397436440678
19.804,1512.1149606299211,1624.58224852071,0.91004,0.9965993805309734,0.3677334428152493,0.0002731485665674182,0.06098288325231513,1049.7279069767442,2.895200211864407
19.83,1516.0251968503935,1629.1668639053253,0.9112325901639343,0.996677610619469,0.36737600000000004,0.0002709264568268823,0.061014303831844224,1048.579069767442,2.896648940677966
19.893,1525.5,1640.2757396449706,0.9141223278688525,0.9968671681415929,0.36642774468085104,0.000265542113994045,0.06109043831301089,1045.7953488372093,2.9001593220338986
19.93,1532.3190082644626,1646.8,0.9158194754098361,0.9969784955752212,0.3658708328267477,0.00026237988090174394,0.06113515221464845,1044.160465116279,2.9022209745762715
19.954,1536.7421487603306,1650.421301775148,0.9169203278688525,0.9970507079646017,0.36550959270516714,0.0002603287026797107,0.06116415582652147,1043.1,2.9035582627118646
20.005,1546.1413223140494,1658.116568047337,0.9192596393442622,0.9972041592920354,0.3647419574468085,0.00025596994895789034,0.06122578850175162,1041.7558139534883,2.9064
20.014,1547.8,1659.4745562130176,0.9196724590163934,0.9972312389380531,0.3646064924012158,0.0002552007571246279,0.061236664856204,1041.5186046511628,2.907048966942149
20.099,1564.988888888889,1672.3,0.9235713114754098,0.9974869911504425,0.3633271003039513,0.0002479361675882603,0.06133938598158759,1039.2782945736433,2.913178099173554
20.104,1566.0,1673.3078740157478,0.9238006557377049,0.9975020353982301,0.3632518419452887,0.0002475088387920035,0.061345428400727806,1039.1465116279069,2.9135386363636364
20.159,1572.8994082840236,1684.3944881889763,0.9263234426229507,0.9976675221238938,0.36242399999999997,0.00024280822203317744,0.061411895011270125,1037.6968992248062,2.9175045454545456
20.212,1579.547928994083,1695.0779527559057,0.9287544918032786,0.9978269911504425,0.3606752864864865,0.00023827853679285412,0.061475944654156366,1036.3,2.9213262396694217
20.213,1579.6733727810654,1695.2795275590556,0.9288003606557377,0.99783,0.36064229189189184,0.00023819307103360265,0.061477153137984415,1036.271770334928,2.9213983471074383
20.226,1581.3041420118343,1697.9,0.9293966557377048,0.9978322899728997,0.3602133621621622,0.00023708201616333484,0.061492863427748956,1035.9047846889953,2.922335743801653
20.273,1587.2,1707.411904761905,0.9315524918032786,0.9978405691056911,0.35866261621621626,0.0002330651254785198,0.06154966216766695,1034.577990430622,2.92572479338843
20.344,1605.2035714285719,1721.7809523809526,0.9348091803278689,0.9978530758807588,0.3563200000000001,0.0002269970565716715,0.06163546451945795,1032.5736842105264,2.9308444214876035
20.352,1607.2321428571431,1723.4,0.935176131147541,0.997854485094851,0.35613472373540866,0.00022631333049766056,0.061645132390082284,1032.3478468899523,2.9314212809917355
20.357,1608.5,1724.4059171597632,0.935405475409836,0.9978553658536585,0.35601892607003904,0.00022588600170140373,0.0616511748092225,1032.2066985645934,2.9317818181818183
20.414,1627.2964285714295,1735.8733727810654,0.93802,0.9978654065040651,0.35469883268482494,0.00022101445342407472,0.06172005838742091,1030.5976076555023,2.9358919421487606
20.421,1629.604761904762,1737.2816568047335,0.9386333333333331,0.9978666395663957,0.3545367159533075,0.00022041619310931524,0.0617285177742172,1030.4,2.936396694214876
20.441,1636.2,1741.3053254437868,0.940385714285714,0.997870162601626,0.3540735252918289,0.00021870687792428762,0.06175268745077805,1029.9083798882682,2.9378388429752067
20.489,1636.2220183486238,1750.9621301775148,0.9445914285714285,0.9978786178861788,0.3529618677042802,0.00021460452148022111,0.061810694674524075,1028.7284916201118,2.9413
20.4967,1636.2255504587156,1752.5112426035503,0.9452660952380951,0.9978799742547425,0.3527835392996109,0.0002139464351339855,0.06182,1028.539217877095,2.9418116020236087
20.521,1636.2366972477064,1757.4,0.9473952380952381,0.9978842547425474,0.3522207626459144,0.00021186961718417687,0.06185759712085029,1027.9418994413409,2.9434261382799325
20.6,1636.2729357798164,1777.7832061068705,0.9543171428571429,0.9978981707317073,0.35039115953307387,0.00020511782220331763,0.06197982644377922,1026.0,2.948675042158516
20.601,1636.2733944954127,1778.0412213740453,0.9544047619047618,0.9978983468834688,0.350368,0.00020503235644406644,0.061981373650398575,1025.9727699530517,2.948741483979764
20.652,1636.2967889908257,1791.2,0.9588733333333334,0.9979073306233062,0.3494816140350877,0.00020067360272224576,0.06206028118798561,1024.5840375586854,2.9521300168634066
20.659,1636.3,1792.3655339805823,0.9594866666666665,0.9979085636856369,0.3493599532163743,0.0002000753424074863,0.06207111163432108,1024.393427230047,2.9525951096121417
20.687,1636.4481481481482,1797.0276699029127,0.96194,0.9979134959349594,0.3488733099415205,0.00019768230114844735,0.06211443341966298,1023.6309859154929,2.954455480607083
20.813,1637.1148148148147,1818.0072815533977,0.971592323759791,0.9979356910569105,0.34668341520467844,0.0001869136154827734,0.062309381453701525,1020.2,2.962827150084317
20.858,1637.35291005291,1825.5,0.9750395822454309,0.9979436178861788,0.3459013099415205,0.00018306765631646106,0.06237900575157244,1018.9142857142857,2.9658170320404724
20.943,1637.8026455026454,1838.3169291338586,0.9815510704960837,0.9979585907859079,0.34442400000000006,0.00017580306678009348,0.06251051831421749,1016.4857142857142,2.971464586846543
20.951,1637.8449735449735,1839.5232283464568,0.9821639164490862,0.99796,0.3443138904899136,0.0001751193407060825,0.06252289596717231,1016.2571428571428,2.971996121416526
21.016,1638.1888888888889,1849.3244094488186,0.9871432898172322,0.9981114117647059,0.3434192507204612,0.0001695640663547428,0.06262346439743029,1014.4,2.976314839797639
21.037,1638.3,1852.4909448818898,0.9887520104438642,0.9981603294117647,0.34313021325648424,0.00016776928541046372,0.06265595573643672,1013.890350877193,2.977710118043845
21.07,1644.9785714285717,1857.4669291338585,0.99128,0.9982371999999999,0.3426760115273776,0.000164948915355168,0.06270701355487539,1013.0894736842105,2.9799026981450254
21.082,1647.4071428571433,1859.276377952756,0.9914299168975069,0.9982651529411765,0.3425108472622479,0.0001639233262441514,0.06272558003430763,1012.7982456140351,2.9807
21.112,1653.4785714285713,1863.8,0.9918047091412743,0.9983350352941176,0.34209793659942367,0.00016135935346661012,0.06277199623288823,1012.0701754385965,2.982746875
21.121,1655.3,1865.0082677165353,0.9919171468144045,0.998356,0.3419740634005764,0.0001605901616333476,0.06278592109246242,1011.8517543859649,2.9833609375
21.29,1676.6,1887.6968503937007,0.9940284764542936,0.9987496705882353,0.339648,0.00014614644831986397,0.06304739901113317,1007.7502923976608,2.9948916666666667
21.332,1697.9,1893.3354330708664,0.9945531855955679,0.9988475058823529,0.33910315789473683,0.00014255688643130575,0.06311238168914601,1006.7309941520468,2.997757291666667
21.358,1701.38031496063,1896.8259842519687,0.9948780055401663,0.9989080705882353,0.33876587468671676,0.00014033477669076985,0.06315260906124921,1006.1,2.99953125
21.366,1702.4511811023622,1897.9,0.9949779501385042,0.998926705882353,0.33866209523809526,0.00013965105061675885,0.06316498671420404,1005.9373333333334,3.0000770833333332
21.38863,1705.4803937007873,1901.50665625,0.9952606684210527,0.9989794204705882,0.338368529122807,0.00013771696048490013,0.0632,1005.4771900000001,3.001621109375
21.459,1714.9,1912.721875,0.9961398060941828,0.9991433411764706,0.3374556591478697,0.00013170273500638028,0.06336720056049715,1004.0463333333333,3.0064223958333334
21.543,1731.9,1926.109375,0.9971892243767313,0.9993390117647059,0.3363659749373434,0.00012452361122926422,0.06356678628000488,1002.3383333333334,3.012153645833333
21.558,1733.4,1928.5,0.997376620498615,0.9993739529411765,0.33617138847117795,0.00012324162484049343,0.06360242658705983,1002.0333333333333,3.0131770833333333
21.658,1743.4,1939.1926406926407,0.9986259279778393,0.9996068941176471,0.3348741453634085,0.00011469504891535506,0.06384002863409285,1000.0,3.02
21.689,1746.5,1942.5073593073594,0.9990132132963988,0.999679105882353,0.334472,0.00011204561037856233,0.06391368526867308,999.3696666666666,3.02224778597786
21.713,1748.9,1945.0735930735932,0.9993130470914127,0.9997350117647059,0.3343143188405797,0.00010999443215652907,0.06397070975996101,998.8816666666667,3.023988007380074
21.748,1752.4414201183433,1948.8160173160175,0.9997503047091413,0.9998165411764707,0.3340843671497584,0.00010700313058273066,0.06405387047642257,998.17,3.0265258302583025
21.789,1756.5899408284024,1953.2,1.0002625207756233,0.9999120470588236,0.3338149951690821,0.00010349903445342401,0.0641512873157061,997.3184615384615,3.029498708487085
21.792,1756.8934911242604,1953.5,1.0003,0.9999190352941177,0.33379528502415456,0.00010324263717566978,0.0641584153771171,997.2561538461538,3.0297162361623617
21.801,1757.804142011834,1954.3999999999996,1.0002988387096774,0.99994,0.333736154589372,0.00010247344534240765,0.06417979956135006,997.0692307692308,3.0303688191881917
21.882,1766.0,1962.5000000000002,1.0002883870967743,0.9999730094043887,0.3332039806763285,9.555071884304544e-05,0.06437225721944681,995.386923076923,3.036242066420664
21.959,1773.6999999999998,1970.2,1.0002784516129033,1.0000043887147336,0.33269808695652175,8.896985538068907e-05,0.06455521079566223,993.7876923076923,3.0418252767527676
21.982,1776.0,1973.7465648854961,1.0002754838709678,1.0000137617554858,0.33254697584541065,8.700414291790734e-05,0.06460985926647983,993.31,3.043492988929889
22.04519,1782.3190000000002,1983.4903664122141,1.0002673303225806,1.0000395131661441,0.33213181449275364,8.160356159081234e-05,0.06476,992.1902044217686,3.048074846863469
22.052,1783.0,1984.5404580152672,1.0002664516129032,1.0000422884012539,0.3320870724637681,8.102153977031061e-05,0.06477589455100391,992.0695238095237,3.048568634686347
22.09,1788.0866141732283,1990.4,1.0002615483870967,1.0000577742946708,0.3318374106280193,7.777384091875797e-05,0.06486458661240611,991.3961224489796,3.0513239852398524
22.133,1793.8425196850394,2008.1,1.000256,1.0000752978056426,0.3315548985507247,7.409881327094861e-05,0.06496494868188754,990.6341156462585,3.054441881918819
22.179,1800.0,2020.9468468468465,1.000250064516129,1.0000940438871473,0.3312526763285024,7.016738834538514e-05,0.06507231275621651,989.8189455782314,3.0577773062730627
22.2,1802.73,2026.8117117117115,1.0002473548387096,1.0001026018808779,0.33111470531400966,6.8372607401106e-05,0.06512132679014931,989.4468027210885,3.0593
22.244,1808.4499999999998,2039.1,1.0002416774193548,1.0001205329153604,0.3308256231884058,6.461211399404513e-05,0.0652240228612466,988.667074829932,3.06336582278481
22.276,1812.6099999999997,2042.6764705882351,1.0002375483870967,1.0001335736677115,0.3306153816425121,6.187720969800094e-05,0.06529871091295371,988.1,3.0663227848101267
22.289,1814.3,2044.129411764706,1.000235870967742,1.0001388714733541,0.3305299710144928,6.076615482773274e-05,0.06532905293395973,987.9497955010225,3.0675240506329113
22.31,1816.0499999999997,2046.476470588235,1.0002331612903226,1.0001474294670847,0.330392,5.897137388345404e-05,0.06537806696789251,987.7071574642127,3.0694645569620254
22.439,1826.7999999999997,2060.894117647059,1.0002165161290322,1.0002,0.32975276116504854,4.7946290940025535e-05,0.06567915317633681,986.2166666666667,3.081384810126582
22.465,1828.9666666666665,2063.8,1.0002131612903225,1.0001873786407767,0.3296239223300971,4.5724181199489574e-05,0.06573983721834885,985.9162576687116,3.083787341772152
22.475,1829.8,2064.6352941176474,1.000211870967742,1.0001825242718447,0.32957436893203884,4.486952360697571e-05,0.06576317723450732,985.8007157464212,3.0847113924050635
22.567,1836.7270588235294,2072.32,1.0002,1.00013786407767,0.32911847766990293,3.700667375584855e-05,0.06597790538316527,984.7377300613497,3.093212658227848
22.645,1842.6,2078.835294117647,1.0006227642276422,1.0001,0.32873196116504855,3.0340344534240775e-05,0.06615995750920135,983.8365030674847,3.100420253164557
22.674,1844.7347222222222,2081.2576470588237,1.000779945799458,1.000085922330097,0.3285882563106796,2.78618375159507e-05,0.06622764355606092,983.5014314928426,3.1031
22.71357,1847.6475138888889,2084.562905882353,1.0009944173441734,1.000066713592233,0.3283921735145631,2.4479957422373472e-05,0.06632,983.0442321063396,3.1084043220858897
22.72,1848.1208333333332,2085.1,1.001029268292683,1.0000635922330097,0.3283603106796117,2.3930412590387226e-05,0.06638416691306917,982.9699386503069,3.1092662576687116
22.765,1851.4333333333334,2090.878409090909,1.0012731707317073,1.0000417475728156,0.32813732038834953,2.0084453424074836e-05,0.06683323551153164,982.45,3.1152984662576686
22.789,1853.2,2093.9602272727275,1.0014032520325202,1.0000300970873786,0.3280183922330097,1.8033275202041584e-05,0.06707273876404496,982.45,3.1185156441717794
22.825,1853.2,2098.5829545454544,1.0015983739837397,1.0000126213592233,0.32784,1.4956507868991976e-05,0.0674319936428149,982.45,3.1233414110429445
22.84885,1853.2,2101.645511363636,1.0017276422764227,1.0000010436893203,0.32784,1.291814951084663e-05,0.06767,982.45,3.126538481595092
22.851,1853.2,2101.921590909091,1.0017392953929538,1.0,0.32784,1.2734398128456123e-05,0.06767,982.45,3.1268266871165644
22.896,1853.2,2107.7,1.0019831978319782,1.0,0.32784,8.888438962143734e-06,0.06767,982.45,3.1328588957055215
22.936,1853.2,2107.7,1.0022,1.0,0.32784,5.469808592088493e-06,0.06767,982.45,3.1382208588957052
23.0,1853.2,2107.7,1.0022,1.0,0.32784,0.0,0.06767,982.45,3.1468
